0 1.5 0.2 -1.2 1
0.05 1.45875 0.18434375 -1.1360999999999999 1.0128008333333334
0.1 1.4239525329101563 0.16952671717366535 -1.0754440305559498 1.0243956893171329
0.15000000000000002 1.39500776740473 0.15543860560291775 -1.0175547079746983 1.0348478179867313
0.2 1.3704605132537981 0.14198425416718333 -0.9611828868334457 1.0442081707269684
0.25 1.3493246099696918 0.12909011906007206 -0.9053352955552127 1.0525083295901405
0.30000000000000004 1.3309146516067007 0.11669757128252202 -0.8491680957438843 1.05976414224974
0.35000000000000003 1.3147464346723545 0.10475851340675138 -0.7919161237981159 1.0659778334498116
0.4 1.3004760302116967 0.09323239260095727 -0.7328423997649892 1.0711390775707674
0.45 1.2878611835912341 0.08208408317218666 -0.6711988038496239 1.0752253082226482
0.5 1.2767362691350268 0.07128232790286322 -0.6061927645488564 1.078201418256928
0.55 1.2669958350481842 0.06079854612285882 -0.5369570958266895 1.0800189346954419
0.6000000000000001 1.2585838012105943 0.050605884894329614 -0.462521784500043 1.0806147180889047
0.65 1.2514864873961546 0.040678431014606144 -0.3817882116060767 1.079909229191205
0.7000000000000001 1.2457282603750957 0.030990527931521034 -0.29350857862138424 1.0778044323844724
0.75 1.2413688869428818 0.021516160120619153 -0.19627690199264208 1.074181480489071
0.8 1.2385017449263114 0.012228382651094723 -0.08854375010364572 1.068898478159741
0.8500000000000001 1.2372518863731006 0.0030987894152954224 0.031324023814415264 1.0617888957018204
0.9 1.2377725326288294 -0.005902966195669006 0.16490432030302565 1.0526616599578347
0.9500000000000001 1.2402378598439414 -0.014809554885934426 0.31345205310330043 1.0413046335145686
1 1.244828909276661 -0.023656172379443167 0.4774434140943754 1.0274940771901606
1.05 1.2517083599411871 -0.032480409985382014 0.6558909917722427 1.0110134927392607
1.1 1.2609795390435485 -0.04132157501295952 0.8454778535109709 0.9916851396032385
1.1500000000000001 1.2726272864526829 -0.05021918575693571 1.039771195431109 0.9694149029759942
1.2000000000000002 1.2864461062236747 -0.05921039484467863 1.229093855694837 0.9442441900501698
1.25 1.3019764078468867 -0.06832631665512799 1.4018023516546492 0.916391556190002
1.3 1.3184873293254382 -0.0775877290132799 1.5472158744009863 0.8862587153511658
1.35 1.3350458148379056 -0.0870012645712741 1.6590662289643343 0.8543833051526015
1.4000000000000001 1.3506746744505405 -0.09655754588460325 1.7372629698072157 0.8213488116920321
1.4500000000000002 1.3645402039365324 -0.10623222642171262 1.7867517850678114 0.787690490443402
1.5 1.3760823329609342 -0.11598966636555623 1.8146293060174974 0.7538360974292178
1.55 1.3850428499406426 -0.12578787972865008 1.8276280528548565 0.7200924199358095
1.6 1.391413314748431 -0.1355832169176592 1.8309558070573058 0.6866626270412366
1.6500000000000001 1.395352101744667 -0.14533385943967816 1.828197511775845 0.653673884615406
1.7000000000000002 1.3971074458789772 -0.15500193517435537 1.821662619115854 0.6212025271933207
1.75 1.396961066676797 -0.1645544940724382 1.8127874004395812 0.5892926465673928
1.8 1.3951927467849394 -0.17396370562875804 1.8024510696031972 0.5579684442142846
1.85 1.392060986672005 -0.18320659717055943 1.791189881971686 0.5272419992050448
1.9000000000000001 1.3877943572501752 -0.19226456226738842 1.7793322633860293 0.49711802135508765
1.9500000000000002 1.3825893025289597 -0.20112278527495236 1.7670812092704986 0.46759672763700977
2 1.3766114779411829 -0.20976966637577138 1.7545637655021362 0.4386755808505733
2.0500000000000003 1.3699987859348945 -0.21819629073538227 1.7418606109220456 0.4103503460119681
2.1 1.3628650233714792 -0.22639596043723642 1.7290237824243258 0.38261573828578965
2.15 1.3553035428250082 -0.234363793577356 1.7160873641850516 0.35546582540687516
2.2 1.347390628895942 -0.2420963873651598 1.703073994700794 0.32889428138315646
2.25 1.3391884654157666 -0.2495915385922622 1.6899988740052136 0.3028945491660428
2.3000000000000003 1.330747666194614 -0.25684801365657284 1.6768722643854095 0.2774599469001318
2.35 1.3221093916537119 -0.2638653603912296 1.66370107396635 0.252583738708668
2.4000000000000004 1.3133070959930697 -0.2706437546095207 1.6504898753731407 0.22825918284241958
2.45 1.3043679566133082 -0.2771838751746844 1.637241571818681 0.20447956514227336
2.5 1.2953140366001294 -0.28348680234060425 1.6239578399410712 0.18123822281156093
2.5500000000000003 1.286163226402655 -0.289553934987499 1.6106394290368304 0.15852856168548027
2.6 1.2769300047481467 -0.295386923153347 1.5972863663380015 0.13634406906465138
2.6500000000000004 1.267626052587251 -0.300987612925244 1.5838980996837653 0.1146783234770615
2.7 1.2582607480680508 -0.3063580013091105 1.570473597653667 0.09352500228583747
2.75 1.248841565446796 -0.31150019915225524 1.5570114201886431 0.07287788777218046
2.8000000000000003 1.2393743965179058 -0.3164164005648205 1.5435097682763448 0.052730872134324355
2.85 1.2298638095482726 -0.3211088575866643 1.529966518426484 0.03307796171827673
2.9000000000000004 1.2203132577508449 -0.3255798590881758 1.5163792458084864 0.01391328071188161
2.95 1.210725246936365 -0.3298317130876728 1.5027452386993756 -0.004768925523696586
3 1.2011014700482194 -0.3338667318234998 1.4890615060668573 -0.022974287350575696
3.0500000000000003 1.1914429147306234 -0.3376872190432645 1.4753247795487094 -0.04070830787187197
3.1 1.1817499488331118 -0.34129545907195136 1.4615315106948257 -0.05797635998271713
3.1500000000000004 1.1720223877543436 -0.34469370729990023 1.4476778640549897 -0.07478368338001733
3.2 1.1622595467258996 -0.34788418179480396 1.4337597064862564 -0.0911353814653663
3.25 1.152460280491693 -0.3508690557921407 1.419772592894004 -0.1070364180813011
3.3000000000000003 1.1426230123181378 -0.35365045085832947 1.4057117484936916 -0.12249161402439633
3.35 1.132745753848109 -0.35623043055238496 1.3915720475747164 -0.1375056432800176
3.4000000000000004 1.122826116966914 -0.3586109944365203 1.3773479886554112 -0.15208302892321057
3.45 1.112861318564067 -0.3607940723052454 1.3630336658332325 -0.16622813862838526
3.5 1.1028481788370026 -0.36278151851700235 1.3486227360519782 -0.17994517972726812
3.5500000000000003 1.092783113580965 -0.36457510632301304 1.334108381924687 -0.19323819375007156
3.6 1.0826621207341218 -0.3661765220953672 1.3194832696634569 -0.20611105037894628
3.6500000000000004 1.072480761291006 -0.3675873593608694 1.3047395015726782 -0.21856744073545722
3.7 1.0622341345543398 -0.3688091125491044 1.2898685624570447 -0.23061086991493152
3.75 1.0519168475596277 -0.3698431703627731 1.2748612591769162 -0.24224464866988632
3.8000000000000003 1.0415229783736553 -0.3706908086757034 1.2597076524475428 -0.25347188413212196
3.85 1.0310460328325726 -0.37135318285909513 1.2443969798212176 -0.2642954694481651
3.9000000000000004 1.0204788941430134 -0.3718313194294549 1.2289175686077596 -0.27471807218520156
3.95 1.0098137646160876 -0.3721261069022106 1.2132567372731617 -0.28474212134399995
4 0.9990420986341312 -0.3722382857229513 1.1974006836019004 -0.2943697927910478
4.05 0.9881545257583425 -0.37216843713334546 1.1813343576070163 -0.30360299289353276
4.1000000000000005 0.977140762665683 -0.37191697081066216 1.1650413168135774 -0.31244334010709623
4.15 0.9659895123484116 -0.37148411109798085 1.1485035611132142 -0.32089214422647366
4.2 0.9546883487108001 -0.37086988161600654 1.131701343874994 -0.32895038296201795
4.25 0.9432235843446084 -0.37007408801615854 1.1146129553824147 -0.3366186754492112
4.3 0.9315801188452825 -0.3690962985973283 1.0972144739248633 -0.3438972522318144
4.3500000000000005 0.9197412645292466 -0.36793582246424766 1.079479478976224 -0.35078592118009133
4.4 0.9076885458102489 -0.36659168485234733 1.0613787198083862 -0.3572840287108769
4.45 0.8954014677661668 -0.3650625991805531 1.0428797315697855 -0.36339041556283314
4.5 0.8828572485480342 -0.36334693531749535 1.023946389254891 -0.36910336624396795
4.55 0.8700305092142266 -0.36144268345540675 1.0045383880327978 -0.37442055110435263
4.6000000000000005 0.8568929132696633 -0.3593474128762318 0.9846106360087831 -0.37933895978875193
4.65 0.843412746596077 -0.35705822476203597 0.9641125425589264 -0.3838548245838914
4.7 0.8295544265040329 -0.35457169804155514 0.9429871817776807 -0.3879635318838415
4.75 0.8152779262314331 -0.3518838270702609 0.9211703061554621 -0.39165951964276385
4.800000000000001 0.8005380982448809 -0.3489899497046566 0.8985891801676642 -0.3949361582525918
4.8500000000000005 0.7852838760289671 -0.34588466404267026 0.8751611967788816 -0.3977856117563317
4.9 0.7694573294980867 -0.34256173174849086 0.8507922316759471 -0.40019867566390205
4.95 0.7529925435155592 -0.33901396544636997 0.8253746800304879 -0.4021645868505176
5 0.7358142819820906 -0.3352330971342506 0.7987851084182785 -0.40367080005629574
5.050000000000001 0.717836391223379 -0.3312096239102281 0.7708814398542732 -0.40470272433353127
5.1000000000000005 0.6989598855570688 -0.32693262649255384 0.7414995724746187 -0.4052434113639733
5.15 0.6790706444697664 -0.32238955500990435 0.7104493121480402 -0.4052731858492915
5.2 0.6580366342369803 -0.31756597529760416 0.6775094766165604 -0.4047692061238711
5.25 0.63570454649241 -0.3124452674032488 0.6424220049398204 -0.40370494072477775
5.300000000000001 0.6118957216704153 -0.30700826611906273 0.6048848840500606 -0.4020495438899451
5.3500000000000005 0.5864011961122273 -0.3012328310496552 0.5645436902544497 -0.39976710992914405
5.4 0.5589756782392907 -0.2950933309248576 0.5209815492992599 -0.3968157833578293
5.45 0.5293302231274393 -0.2885600235267558 0.47370736574552946 -0.3931466991111564
5.5 0.49712334017815274 -0.28159830871466307 0.42214229951975724 -0.38870272606913736
5.550000000000001 0.4619502443461943 -0.2741678277074834 0.3656047420085565 -0.3834169893992029
5.6000000000000005 0.4233299655054375 -0.26622137734856327 0.303294580872667 -0.3772111562290313
5.65 0.38069009724966246 -0.25770360429319417 0.23427853221973793 -0.3699934907693332
5.7 0.33334915879576643 -0.24854944248363842 0.15748006385241287 -0.36165672911548524
5.75 0.2804969745881473 -0.23868226091691122 0.07168038633003397 -0.3520759066335003
5.800000000000001 0.22117434198619845 -0.22801170310941127 -0.024458249984005656 -0.3411064167052226
5.8500000000000005 0.15425488701063722 -0.21643123466641956 -0.13232854213528225 -0.32858282298707564
5.9 0.07843492391418884 -0.2038154877841814 -0.2532453609687404 -0.3143193275489695
5.95 -0.007757906354888405 -0.19001762859995422 -0.3882060272819301 -0.2981133372617686
6 -0.1059185303128273 -0.17486721585135853 -0.5375018482235527 -0.2797542181737247
6.050000000000001 -0.21765072694218246 -0.15816942002962409 -0.7001590524287536 -0.2590398303131388
6.1000000000000005 -0.34434186987322724 -0.1397070780010412 -0.8732606176365767 -0.23580315395807822
6.15 -0.4867724405801085 -0.11924785202935895 -1.0513574067891576 -0.2099491216269095
6.2 -0.6445183606848651 -0.09655952902875758 -1.2263933247885874 -0.1814964919942449
6.25 -0.8151713788666037 -0.07143659486245112 -1.3886683050497084 -0.15061176534371956
6.300000000000001 -0.9935670762955703 -0.04373938672987916 -1.5290107187484496 -0.11761651685815736
6.3500000000000005 -1.1714677489123402 -0.013441802077870088 -1.6414118833467495 -0.08295456894681845
6.4 -1.338335112354359 0.01932542338500099 -1.7246007852465428 -0.047124515982746085
6.45 -1.4835630856783604 0.05425706137679043 -1.7815456323541745 -0.010604172533624397
6.5 -1.5995558204246645 0.09090023423347562 -1.8174561383166719 0.026203171371548636
6.550000000000001 -1.6839481045892852 0.12872506306992137 -1.8377692310471896 0.06298834044220783
6.6000000000000005 -1.7395008025917185 0.16721201512291545 -1.8470376742365153 0.09952954875903064
6.65 -1.7719830311572569 0.20591957007152398 -1.8486714057575988 0.13567434159668276
6.7 -1.7877188673482831 0.24451288740317084 -1.8450926527117506 0.17132091277449063
6.75 -1.7920708868205075 0.2827590021418486 -1.8379813937816563 0.20640300912449233
6.800000000000001 -1.7889844781329396 0.3205056430995299 -1.8284874791232382 0.24087885016596533
6.8500000000000005 -1.7811330850940894 0.35765774311318277 -1.817389776342697 0.27472329023621356
6.9 -1.7702463074586745 0.3941582065246241 -1.80521111665221 0.3079223699027209
6.95 -1.757416425485504 0.4299742225252228 -1.792299906598398 0.34046957850313714
7 -1.7433258398579734 0.4650882118486631 -1.7788870687160718 0.37236332147762974
7.050000000000001 -1.7283995446332432 0.4994920610800756 -1.7651250616713736 0.40360522139436983
7.1000000000000005 -1.7129023930697909 0.5331835156821819 -1.7511142090638152 0.43419898637618826
7.15 -1.6969996877427165 0.5661639370301502 -1.7369202605894711 0.46414965948275877
7.2 -1.6807945616903583 0.5984369060638703 -1.7225860165052342 0.4934631213939221
7.25 -1.6643510033725477 0.630007349118699 -1.7081389896604398 0.5221457604974526
7.300000000000001 -1.647708080956615 0.6608809859308975 -1.693596447247655 0.5502042532753731
7.3500000000000005 -1.6308887777846617 0.6910639772346939 -1.6789687287184967 0.5776454173053116
7.4 -1.6139055165610547 0.7205626967634029 -1.6642614318115392 0.6044761121031619
7.45 -1.5967636357821777 0.7493835813215785 -1.6494768549409673 0.6307031715346098
7.5 -1.5794635891849738 0.7775330301714478 -1.6346149497419118 0.6563333570921973
7.550000000000001 -1.5620023409701207 0.8050173357267263 -1.6196739495236778 0.681373324974693
7.6000000000000005 -1.5443742487148429 0.8318426341615002 -1.6046507819577043 0.7058296022844551
7.65 -1.5265716155124402 0.8580148686405745 -1.5895413369159528 0.7297085692151145
7.7 -1.508585024996157 0.8835397604357393 -1.5743406359763294 0.7530164451225358
7.75 -1.490403530790799 0.9084227847994238 -1.5590429341529404 0.7757592770426041
7.800000000000001 -1.4720147455409647 0.9326691494816909 -1.5436417739228274 0.7979429296605922
7.8500000000000005 -1.453404857925278 0.9562837744179092 -1.528130004685951 0.8195730760269625
7.9 -1.4345585952939246 0.9792712715179318 -1.5124997761676322 0.8406551885042989
7.95 -1.4154591425004446 1.0016359237370176 -1.4967425111454316 0.8611945295527401
8 -1.3960880227369743 1.023381662756216 -1.4808488607298358 0.8811961420383023
8.05 -1.3764249428459718 1.0445120446779486 -1.464808643905506 0.9006648387938414
8.1 -1.3564476031103379 1.0650302231710844 -1.4486107719189463 0.9196051911851209
8.15 -1.3361314695515694 1.084938919490952 -1.4322431572257783 0.9380215164402494
8.200000000000001 -1.3154495050441268 1.1042403887602052 -1.4156926059805024 0.9559178634931105
8.25 -1.2943718539059743 1.1229363818293723 -1.3989446923878126 0.9732979970722453
8.3 -1.2728654729124749 1.1410281019417137 -1.3819836125794682 0.990165379736754
8.35 -1.2508936997851214 1.1585161553039887 -1.3647920149867085 1.006523151520034
8.4 -1.2284157480144466 1.175400494509272 -1.3473508034017503 1.0223741067897198
8.450000000000001 -1.2053861142680018 1.1916803535645684 -1.3296389080191529 1.0377206678664344
8.5 -1.1817538814734014 1.2073541730370692 -1.3116330186706127 1.0525648548625828
8.55 -1.1574618967913068 1.222419513538533 -1.293307273158709 1.0669082511022467
8.6 -1.132445798906298 1.2368729554046451 -1.2746328919875862 1.080751963360096
8.65 -1.106632863120442 1.2507099819789802 -1.2555777487955289 1.0940965760057293
8.700000000000001 -1.079940625331294 1.2639248433586923 -1.2361058633064708 1.1069420979530222
8.75 -1.0522752367365136 1.2765103967752156 -1.216176800494001 1.1192879010829477
8.8 -1.0235294895684812 1.2884579189353482 -1.1957449557102806 1.1311326485214235
8.85 -0.99358043976459 1.299756884595322 -1.1747587005365392 1.1424742107961698
8.9 -0.9622865345641364 1.3103947043324105 -1.1531593577523314 1.1533095674491172
8.950000000000001 -0.9294841308533136 1.3203564128539322 -1.1308799656933048 1.1636346911186757
9 -0.8949832629013397 1.3296242971691732 -1.1078437818432618 1.1734444103968396
9.05 -0.8585624853211418 1.3381774514622966 -1.0839624620954873 1.1827322468675525
9.1 -0.8199625784718962 1.345991242454706 -1.0591338348227741 1.1914902205902795
9.15 -0.7788788599938214 1.353036665351742 -1.0332391665562988 1.1997086168351316
9.200000000000001 -0.734951800890949 1.3592795660841115 -1.0061397872140816 1.2073757050110123
9.25 -0.687755605223796 1.3646797005230409 -0.9776729056010467 1.214477398337502
9.3 -0.6367843953307231 1.3691895959128855 -0.9476463981199494 1.2209968397438649
9.35 -0.581435681925529 1.3727531745710961 -0.9158322928231938 1.2269138955470607
9.4 -0.5209909521144348 1.3753040963736203 -0.8819585947371111 1.2322045334396377
9.450000000000001 -0.4545935924636456 1.3767637775409578 -0.8456990054231096 1.236840054954404
9.5 -0.3812251842122293 1.3770390542586453 -0.806659981550764 1.2407861446170412
9.55 -0.2996828225195461 1.376019490829323 -0.7643644623265011 1.244001688288514
9.600000000000001 -0.20856312307643482 1.3735744013575544 -0.7182314972684428 1.246437301841535
9.65 -0.10626393271725028 1.369549792062709 -0.6675509772105872 1.2480334990508284
9.700000000000001 0.008976229488632234 1.3637656872753539 -0.6114528228679469 1.2487184164994531
9.75 0.1389669505877485 1.3560147466898118 -0.5488705311589878 1.24840500818483
9.8 0.28532983877716617 1.346063795544164 -0.47850031194827153 1.2469876331117709
9.850000000000001 0.4490658158383116 1.3336609082758035 -0.3987598354837179 1.2443380039593306
9.9 0.6298551388682476 1.3185518379338097 -0.3077558850275606 1.2403005762995838
9.950000000000001 0.8250866591162994 1.3005101511413608 -0.20327931952951023 1.2346876876378294
10 1.0288199404576512 1.2793837026361714 -0.08285994430025583 1.2272751764913854
10.05 1.2312676657430157 1.2551534558472117 0.056066756451219654 1.217799906674108
10.100000000000001 1.4197443860821402 1.2279879288048905 0.21580720531929454 1.205961651210979
10.15 1.5817205454037344 1.198263556744774 0.3977804093091579 1.1914331331810946
10.200000000000001 1.7090634888494294 1.1665239841670794 0.6015240953267292 1.1738834609394426
10.25 1.8007591725154013 1.1333818642945062 0.823324750718759 1.1530209521922794
10.3 1.8620087925773323 1.0994068030709052 1.0547424084029846 1.1286591009096796
10.350000000000001 1.9007177298246274 1.0650515812431796 1.281937756100568 1.1007995703801454
10.4 1.9242062494633982 1.030636037757103 1.487393464592633 1.0697053462581894
10.450000000000001 1.9377106118316192 0.9963710816332103 1.6550151513781832 1.0359160597545864
10.5 1.9444101463766057 0.9623946571693393 1.7765269932354355 1.0001672896681366
10.55 1.9461223830752463 0.9288012137160685 1.8542062913781732 0.9632348355741248
10.600000000000001 1.9440074189092293 0.8956591186845175 1.8976043015282666 0.9257855901165204
10.65 1.9389749987975233 0.8630185738069512 1.9178092281869132 0.8883055358448211
10.700000000000001 1.9318049495095266 0.8309150279122244 1.9237596250584836 0.851107248204608
10.75 1.9231402714080506 0.7993715972128187 1.921422935970229 0.8143748822041316
10.8 1.9134728698881909 0.7684016295885056 1.9143982232197128 0.7782103898204307
10.850000000000001 1.9031550031794158 0.7380112582160191 1.9047476000936685 0.7426671700875932
10.9 1.8924270574222775 0.7082015942907898 1.893626439291009 0.707771087557746
10.950000000000001 1.881447805713881 0.6789704068194963 1.8816780407041656 0.673532667249818
11 1.8703199073907262 0.6503133152557907 1.8692614396592384 0.6399539378611245
11.05 1.8591088478656685 0.6222245958067457 1.8565783658375896 0.6070322262285539
11.100000000000001 1.847856046017579 0.5946977098478659 1.8437431218554015 0.5747622602495044
11.15 1.8365875531413263 0.5677256435151964 1.8308210135557326 0.5431373408376738
11.200000000000001 1.825319681914227 0.5413011233309115 1.8178495979132983 0.5121500007405873
11.25 1.8140625941091968 0.5154167521224167 1.8048505318180192 0.4817923786602914
11.3 1.8028225676775567 0.4900650943226319 1.791836247270307 0.4520564339599935
11.350000000000001 1.7916034232009255 0.46523872934294136 1.7788137534520636 0.4229340711641937
11.4 1.7804074202102915 0.4409302848714307 1.7657868267572205 0.3944172128458498
11.450000000000001 1.7692358207695575 0.4171324575571125 1.7527572863917096 0.3664978426507105
11.5 1.7580892445628702 0.3938380257601445 1.7397257454030555 0.33916803085319175
11.55 1.7469678932651314 0.37103985730157796 1.7266920573621993 0.31241994958694175
11.600000000000001 1.7358716927848923 0.34873091405362255 1.7136555844602517 0.28624588191369316
11.65 1.7248003837355264 0.32690425452876626 1.7006153596257534 0.26063822718479746
11.700000000000001 1.7137535791302594 0.3055530351992383 1.6875701850317708 0.23558950415863011
11.75 1.7027308012203983 0.28467051101083807 1.6745186919784465 0.21109235275604968
11.8 1.691731504982354 0.2642500353870344 1.6614593770357373 0.18713953499195607
11.850000000000001 1.6807550929989545 0.24428505991316823 1.6483906234002008 0.16372393541509392
11.9 1.6698009247485757 0.2247691338233788 1.6353107129012043 0.1408385612638645
11.950000000000001 1.6588683222242868 0.20569590337009397 1.6222178319832061 0.11847654247009679
12 1.6479565731143 0.18705911112857326 1.609110073714029 0.09663113159614894
12.05 1.6370649323353095 0.16885259527142818 1.5959854370880715 0.07529570376190516
12.100000000000001 1.6261926224288752 0.1510702888367286 1.5828418244105569 0.054463756600348474
12.15 1.6153388331497125 0.13370621900599405 1.5696770372469522 0.03412891026928466
12.200000000000001 1.6045027204571238 0.11675450640364943 1.55648877123036 0.01428490753994801
12.25 1.5936834050438333 0.10020936442649028 1.5432746098965084 -0.0050743860209114325
12.3 1.5828799704855918 0.0840650986097745 1.5300320176350377 -0.0239549817612346
12.350000000000001 1.5720914610607906 0.06831610603536352 1.5167583317910902 -0.042362767533142304
12.4 1.5613168792660215 0.05295687478663733 1.5034507539128386 -0.060303507149115074
12.450000000000001 1.550555183037194 0.037981983454548056 1.4901063401122148 -0.07778283969213168
12.5 1.539805282673969 0.023386100699057208 1.476721990483759 -0.09480627866647186
12.55 1.5290660374562477 0.009163984870257607 1.4632944375075345 -0.11137921097498983
12.600000000000001 1.5183362519341859 -0.004689516306328072 1.4498202333447272 -0.12750689570747564
12.65 1.5076146718669268 -0.018179465975478905 1.4362957359176267 -0.14319446272326222
12.700000000000001 1.4968999797794735 -0.03131083832384664 1.4227170936482743 -0.15844691100951003
12.75 1.4861907901014668 -0.04408851867168721 1.4090802287114539 -0.17326910679459817
12.8 1.475485643845822 -0.056517303478497795 1.3953808186372836 -0.18766578139374912
12.850000000000001 1.4647830027789952 -0.06860190025563481 1.381614276075857 -0.20164152876138303
12.9 1.4540812430278791 -0.0803469273782208 1.3677757265106323 -0.21520080272169642
12.950000000000001 1.4433786480608009 -0.09175691378777057 1.353859983677936 -0.2283479138455402
13 1.432673400971628 -0.10283629857596882 1.3398615224163701 -0.24108702593777334
13.05 1.421963575986361 -0.11358943043889513 1.3257744486313212 -0.2534221520948199
13.100000000000001 1.4112471291006161 -0.12402056698969956 1.3115924660152354 -0.2653571502870756
13.15 1.4005218877438026 -0.13413387391626025 1.2973088391128396 -0.27689571841499605
13.200000000000001 1.3897855393513048 -0.1439334239686764 1.2829163522607696 -0.28804138878103425
13.25 1.3790356187092472 -0.1534231957595336 1.2684072638616588 -0.2987975219119451
13.3 1.3682694939170523 -0.16260707235768782 1.253773255371886 -0.3091672996571725
13.350000000000001 1.35748435079053 -0.17148883965380296 1.2390053742877731 -0.3191537174788899
13.4 1.3466771755020945 -0.18007218447299442 1.2240939703045404 -0.3287595758375484
13.450000000000001 1.3358447352242326 -0.18836069240661574 1.209028623692757 -0.33798747056322404
13.5 1.3249835565067245 -0.1963578453314017 1.1937980647847055 -0.34683978208732613
13.55 1.3140899010763822 -0.2040670185797659 1.1783900832836258 -0.35531866339094204
13.600000000000001 1.3031597386990679 -0.21149147771993634 1.1627914258968841 -0.3634260265047901
13.65 1.292188716686038 -0.21863437489867754 1.1469876805432762 -0.3711635273708758
13.700000000000001 1.281172125558545 -0.2254987446924431 1.1309631450870845 -0.37853254884682874
13.75 1.270104860304012 -0.23208749940475043 1.114700678197615 -0.38553418159974195
13.8 1.258981376561426 -0.23840342373815473 1.098181529511117 -0.39216920259616567
13.850000000000001 1.2477956409597706 -0.2444491687581651 1.0813851457680173 -0.3984380508475602
13.9 1.2365410746974859 -0.2502272450534765 1.0642889489949017 -0.4043408000145644
13.950000000000001 1.2252104892884237 -0.25574001498160986 1.046868082076369 -0.4098771274071685
14 1.213796013204714 -0.2609896838709932 1.0290951161906678 -0.41504627883919587
14.05 1.2022890079121984 -0.2659782900291168 1.010939713532948 -0.419847028701853
14.100000000000001 1.1906799715106702 -0.2707076933809618 0.9923682374817873 -0.42427763450938344
14.15 1.1789584278479723 -0.2751795625315834 0.9733433008304241 -0.42833578503627723
14.200000000000001 1.1671127985601364 -0.2793953600104839 0.9538232408451728 -0.43201854100539583
14.25 1.1551302549818354 -0.28335632541193656 0.9337615076584012 -0.4353222670941321
14.3 1.1429965462506249 -0.28706345609312295 0.9131059497657369 -0.43824255379443133
14.350000000000001 1.1306957991673245 -0.2905174850288247 0.8917979770729122 -0.44077412738376603
14.4 1.1182102844388477 -0.29371885534498715 0.8697715779035824 -0.4429107459278094
14.450000000000001 1.1055201427751227 -0.29666769096064205 0.8469521614919274 -0.44464507882933435
14.5 1.0926030628832537 -0.2993637626545523 0.8232551915803119 -0.4459685669471187
14.55 1.0794339016298815 -0.30180644873465323 0.7985845696472432 -0.44687125971609776
14.600000000000001 1.0659842344385069 -0.30399468931877444 0.7728307178304901 -0.44734162498571667
14.65 1.0522218212408354 -0.30592693302652646 0.745868301642336 -0.4473663264350752
14.700000000000001 1.038109969869678 -0.30760107462491726 0.7175535210450994 -0.44692996239737326
14.75 1.0236067744900141 -0.30901438185200875 0.6877208855043473 -0.44601475870973184
14.8 1.0086642012967155 -0.3101634092484106 0.6561793747798562 -0.4446002067808078
14.850000000000001 0.9932269869957948 -0.3110438963364725 0.6227078736600739 -0.4426626364354749
14.9 0.977231307212225 -0.3116506468779018 0.5870497580434477 -0.44017471128145463
14.950000000000001 0.9606031615634725 -0.3119773851830168 0.5489065063273693 -0.4371048324338398
15 0.943256409304448 -0.31201658450375025 0.5079302222854988 -0.43341643462308715
15.05 0.9250903738022707 -0.3117592613765947 0.4637149980256222 -0.4290671573811144
15.100000000000001 0.9059869153697298 -0.3111947283447854 0.41578714307665177 -0.42400787385260197
15.15 0.8858068502209996 -0.3103102957337597 0.36359449981212055 -0.4181815620634094
15.200000000000001 0.8643855692424818 -0.30909091104005326 0.3064954245968372 -0.4115220103440148
15.25 0.8415276859664583 -0.3075187220048859 0.24374864729026552 -0.4039523636515152
15.3 0.8170005231243486 -0.3055725466185936 0.1745062965670729 -0.3953835466143937
15.350000000000001 0.790526240236923 -0.3032272302901441 0.09781413712869862 -0.38571265143211464
15.4 0.7617724266710941 -0.30045286756961237 0.012625821283190397 -0.3748214680020033
15.450000000000001 0.7303410619329063 -0.2972138638307245 -0.0821579713041003 -0.36257547860181977
15.5 0.6957559186340578 -0.29346781245812625 -0.18760916547932338 -0.3488238619723578
15.55 0.6574488099724671 -0.28916416738744977 -0.30462826397619874 -0.33340136751217286
15.600000000000001 0.6147456250033498 -0.2842427023251486 -0.43371042935948273 -0.3161333144116139
15.65 0.5668538840436852 -0.2786317703899306 -0.5746010952151351 -0.29684534400656915
15.700000000000001 0.5128545021747046 -0.2722464145749601 -0.7258491196355826 -0.2753796367186517
15.75 0.4517012357921669 -0.26498643012326784 -0.8843346805437843 -0.25161857204268717
15.8 0.3822311990405769 -0.25673453575301713 -1.0449647543729677 -0.22551454650135785
15.850000000000001 0.30318800945885976 -0.24735484980645134 -1.2008460442678974 -0.1971204919190293
15.9 0.2132556471376837 -0.23669186182040827 -1.344227336794433 -0.1666106928899686
15.950000000000001 0.11109921030181745 -0.22457003970193457 -1.4681799012794268 -0.13427946835887555
16 -0.004584098937786357 -0.21079420678508246 -1.5684045877321044 -0.10051080369194085
16.05 -0.1349772609201967 -0.19515106984911781 -1.6442078595320133 -0.06572518884752529
16.1 -0.2809582437790679 -0.17741300123890313 -1.698108424593396 -0.030322305091659396
16.150000000000002 -0.4427338293096541 -0.1573463657664936 -1.7344576053714422 0.005360749982982284
16.2 -0.6192285674290197 -0.13472788103145383 -1.7579600709260896 0.04106685305161634
16.25 -0.8072587240157293 -0.10937273709130042 -1.772705184994704 0.07661560936568981
16.3 -1.0007239547576916 -0.08117596347196918 -1.7817808899145766 0.11188885630556708
16.35 -1.1903522329549285 -0.05016210903056212 -1.7872573895425337 0.1468130042665205
16.400000000000002 -1.3647326797089887 -0.016527779834579974 -1.7903307270692508 0.18134267284729025
16.45 -1.5129850367844946 0.019347244144666986 -1.7915227811945962 0.21544740860936956
16.5 -1.6281639037349183 0.056939661357822906 -1.7909128042614377 0.2491021766940133
16.55 -1.7093143949277303 0.09566728200019713 -1.7883851539901878 0.2822819739193427
16.6 -1.7607406065362712 0.13498357662635074 -1.783843320405162 0.31496036255014054
16.650000000000002 -1.789310656559089 0.17444241207100844 -1.7773286752547557 0.34711079757023183
16.7 -1.8018521118784263 0.2137177552365841 -1.7690291824435942 0.3787089990051444
16.75 -1.8038075998339538 0.25259019677032096 -1.7592217364881193 0.40973488490546295
16.8 -1.7990061264981296 0.29092053859730843 -1.74820462791383 0.4401734351642709
16.85 -1.7899559068037545 0.32862426549706947 -1.7362511212453862 0.4700145939558633
16.900000000000002 -1.778237609665796 0.36565207453841475 -1.7235883075779637 0.49925261019638234
16.95 -1.764828845132491 0.40197664648649867 -1.7103935053766302 0.5278851804593624
17 -1.750330019192602 0.4375841810743214 -1.6967995507180889 0.5559126173699473
17.05 -1.735109666698196 0.47246913936051266 -1.6829031315590552 0.5833371426300852
17.1 -1.719394499938954 0.5066310183693524 -1.6687731208673735 0.6101623283910135
17.150000000000002 -1.7033242753347189 0.5400723767860099 -1.6544576761063587 0.6363926747101403
17.2 -1.686985052595993 0.5727976216184636 -1.6399898200497098 0.6620332983393384
17.25 -1.6704293853070613 0.604812256610247 -1.6253916292975057 0.6870897070970082
17.3 -1.6536886413889922 0.6361224116958921 -1.6106772895105521 0.7115676376309242
17.35 -1.6367805743242663 0.666734544552885 -1.5958552835083037 0.7354729390518819
17.400000000000002 -1.6197140116053415 0.6966552483327066 -1.5809299390206295 0.7588114892605304
17.45 -1.6024917788114594 0.7258911254152824 -1.5659025133935545 0.7815891343338024
17.5 -1.5851125329919646 0.7544487025059539 -1.5507719474341997 0.8038116440455828
17.55 -1.5675719140297888 0.78233437174599 -1.5355353841733295 0.8254846785888591
17.6 -1.5498632638684937 0.8095543482019628 -1.5201885206998647 0.8466137629988834
17.650000000000002 -1.5319780676142443 0.8361146375947512 -1.504725840980359 0.8672042667910802
17.7 -1.513906212115573 0.862021010291637 -1.489140763045043 0.8872613870382478
17.75 -1.495636121673132 0.887278978932224 -1.4734257236089212 0.9067901336058383
17.8 -1.4771548081444164 0.911893777901888 -1.4575722159138 0.9257953156050774
17.85 -1.4584478585741016 0.9358703433937585 -1.441570791432146 0.944281528356511
17.900000000000002 -1.4394993744007756 0.9592132931269718 -1.425411032416361 0.9622531403129206
17.95 -1.4202918703198473 0.981926904985855 -1.409081499642795 0.9797142794923688
18 -1.4008061368226243 1.004015093955381 -1.3925696577592788 0.9966688190344645
18.05 -1.3810210675346921 1.0254813867794397 -1.3758617791647805 1.013120361525923
18.1 -1.3609134502656521 1.046328893776427 -1.358942826163265 1.0290722217518067
18.150000000000002 -1.340457718843351 1.066560277220732 -1.3417963101193915 1.044527407520669
18.2 -1.319625661123003 1.0861777156437855 -1.3244041254095593 1.059488598187517
18.25 -1.2983860768755473 1.1051828633260545 -1.3067463550347953 1.073958120459022
18.3 -1.2767043774405369 1.1235768041409875 -1.2888010437790636 1.0879379210105202
18.35 -1.2545421169588324 1.141359998770576 -1.2705439336985724 1.1014295353728536
18.400000000000002 -1.2318564425597343 1.158532224135161 -1.2519481554536573 1.1144340524567857
18.45 -1.2085994479335231 1.1750925036605486 -1.2329838674773101 1.1269520739703527
18.5 -1.1847174111183285 1.19103902673432 -1.2136178331341718 1.1389836678456493
18.55 -1.1601498928807623 1.2063690553685322 -1.193812923764158 1.1505283146203653
18.6 -1.1348286665384206 1.221078815672612 -1.1735275327051071 1.161584845508318
18.650000000000002 -1.1086764431656104 1.2351633712286818 -1.1527148818956818 1.172151370632528
18.7 -1.0816053474732856 1.2486164748271593 -1.1313221982768404 1.1822251955715064
18.75 -1.0535150887996632 1.2614303942319618 -1.1092897316843267 1.1918027239682751
18.8 -1.02429075801858 1.2735957066625903 -1.0865495789281001 1.2008793434514613
18.85 -0.9938001640721925 1.2851010554552775 -1.0630242698625747 1.2094492914918828
18.900000000000002 -0.9618906024367473 1.2959328608357636 -1.0386250599130544 1.2175054970318393
18.95 -0.9283849211989393 1.3060749748267269 -1.0132498590261472 1.225039392733272
19 -0.8930767175858414 1.315508267933197 -0.9867807084377629 1.232040691437482
19.05 -0.855724457936158 1.3242101322954625 -0.9590806928313643 1.238497118838984
19.1 -0.8160442669628839 1.3321538823594874 -0.9299901449221079 1.2443940923541064
19.150000000000002 -0.7737010788463456 1.3393080296866733 -0.8993219604523951 1.2497143335899679
19.200000000000003 -0.7282977872783275 1.345635403249416 -0.8668557919226944 1.254437398539423
19.25 -0.6793619840883416 1.3510920804961217 -0.8323308268651355 1.258539105456307
19.3 -0.6263298581426794 1.3556260879419841 -0.795436779150624 1.2619908350842048
19.35 -0.5685268813189462 1.359175823911154 -0.7558026290877533 1.2647586712839636
19.400000000000002 -0.5051451204612959 1.3616681522338843 -0.7129825428592389 1.2668023419157217
19.450000000000003 -0.43521754032772636 1.3630161180833609 -0.6664382951912978 1.2680739099851206
19.5 -0.35759078812847583 1.3631162532517127 -0.6155174392804996 1.2685161537938474
19.55 -0.2709001776233308 1.3618454820087869 -0.5594264779304421 1.2680605631322541
19.6 -0.17355476383373508 1.3590577352896906 -0.49719852088143746 1.2666248690133177
19.650000000000002 -0.06374783213608048 1.3545805729974643 -0.4276556268549971 1.2641100229077682
19.700000000000003 0.06047942204485507 1.3482124694166528 -0.3493677258086196 1.2603965600105775
19.75 0.20107423423456092 1.339722029448652 -0.2606136180660425 1.2553403435471324
19.8 0.3596374995640525 1.328851369285731 -0.1593566504270567 1.2487678379867366
19.85 0.5368279444188672 1.3153272078744473 -0.04326079603002793 1.2404713764815851
19.900000000000002 0.7314363266796383 1.2988844923334921 0.09020472032907391 1.2302054972818814
19.950000000000003 0.939195102541098 1.2793073454182307 0.24349027321306965 1.2176864940073135
20 1.1517302273203072 1.2564881250639433 0.41839852668659827 1.2025989930747543
20.05 1.356575014654628 1.2304943197412264 0.6150875025325003 1.1846154802377826
20.1 1.5393663951806076 1.2016161358559223 0.8305957546614225 1.1634361674478877
20.150000000000002 1.6882788233926722 1.1703581952473034 1.0571801229344078 1.1388544746592602
20.200000000000003 1.7983797556090233 1.1373580868682729 1.281442020962301 1.1108427768648994
20.25 1.8725516417205186 1.103262010290968 1.485894531969968 1.0796312338625216
20.3 1.9184151010135573 1.0686200252998832 1.6540144898534903 1.0457304077072638
20.35 1.9442530197785033 1.0338423083007693 1.776793530671472 1.0098568741165177
20.400000000000002 1.9567024163858504 0.9992092050001687 1.8558200968098255 0.9727795300517432
20.450000000000003 1.9603924155375732 0.9649034115937931 1.9002721853180353 0.9351673110775987
20.5 1.9584086465248978 0.9310408783746403 1.9211722100777575 0.8975118760325549
20.55 1.9527945178875052 0.897693253750167 1.9275380072455424 0.8601312892919378
20.6 1.9448940708127098 0.8649029928424554 1.9254366793656323 0.8232136303924122
20.650000000000002 1.9355772054943134 0.8326935291145242 1.918542065069414 0.7868632695610532
20.700000000000003 1.9253962429600364 0.8010761277786312 1.9089630573191458 0.7511349785581666
20.75 1.9146961422242694 0.7700544239766353 1.8978819748874016 0.7160553617600854
20.8 1.9036898431845313 0.7396273536353968 1.8859570323716779 0.6816353251739904
20.85 1.892507846585914 0.7097910038855407 1.873555357208195 0.6478770816074153
20.900000000000002 1.8812298307616484 0.6805397619437643 1.8608830217371999 0.6147780358885883
20.950000000000003 1.869904373306441 0.6518670207105102 1.8480566416023578 0.5823329373802103
21 1.8585610813311781 0.6237656094346298 1.8351427459279952 0.5505350786940666
21.05 1.847217992767288 0.5962280558156088 1.8221795334273203 0.5193769688384313
21.1 1.8358860755222073 0.5692467454054979 1.809188994612362 0.48885071496140403
21.150000000000002 1.8245719606114348 0.5428140185950366 1.7961837336434374 0.4589482410764864
21.200000000000003 1.8132796049136644 0.5169222296612391 1.783170848786871 0.42966141465197594
21.25 1.8020113057532385 0.491563782708632 1.7701541641172713 0.400982120558646
21.3 1.7907683224678692 0.46673115349187994 1.7571355270764764 0.372902304609984
21.35 1.7795512589913889 0.4424169025765819 1.744115570913571 0.3454139993489021
21.400000000000002 1.7683603005311432 0.4186136831622857 1.7310941671680884 0.31850933936256776
21.450000000000003 1.757195360733335 0.3953142456013945 1.7180706966181616 0.2921805703622611
21.5 1.7460561736290618 0.37251143986453833 1.7050442127259438 0.26642005452092266
21.55 1.7349423513080378 0.3501982167258152 1.6920135407103194 0.24122027355110304
21.6 1.7238534201796796 0.32836762814917225 1.6789773376338442 0.21657383041507255
21.650000000000002 1.7127888437592322 0.30701282717740874 1.6659341285968217 0.19247345020950257
21.700000000000003 1.7017480369062454 0.28612706751401706 1.6528823280975435 0.16891198055856002
21.75 1.6907303745915927 0.26570370291882284 1.639820252044984 0.14588239172355022
21.8 1.6797351971243586 0.24573618649502843 1.6267461237735374 0.1233777765608105
21.85 1.6687618130575546 0.2262180699179683 1.6136580761187205 0.10139135041271305
21.900000000000002 1.6578095005455264 0.20714300263860938 1.6005541508252645 0.07991645098774228
21.950000000000003 1.6468775076446769 0.18850473108384844 1.5874322960735008 0.058946538267714926
22 1.635965051870537 0.1702970978686566 1.5742903626072255 0.03847519446912408
22.05 1.6250713192099018 0.15251404103065438 1.5611260987550855 0.01849612407876611
22.1 1.6141954627129 0.13514959329486184 1.547937144514945 -0.0009968460203064397
22.150000000000002 1.6033366007416363 0.11819788137458595 1.5347210247905232 -0.02000976631883437
22.200000000000003 1.5924938149200727 0.10165312531331583 1.521475141815702 -0.03854856433495346
22.25 1.58166614780824 0.0855096378718672 1.5081967667643352 -0.056619044139341525
22.3 1.5708526003088936 0.06976182396470046 1.4948830305158207 -0.0742268857397982
22.35 1.560052128803956 0.0544041801492389 1.4815309135251524 -0.09137764431263133
22.400000000000002 1.5492636420099544 0.03943129417207473 1.4681372347280315 -0.10807674926738595
22.450000000000003 1.5384859975351313 0.024837844576132986 1.454698639395165 -0.12432950313033722
22.5 1.5277179981152853 0.010618600373144679 1.4412115858339065 -0.1401410802307986
22.55 1.5169583875002361 -0.003231579213851978 1.4276723308190333 -0.15551652517267492
22.6 1.5062058459577394 -0.01671774493281561 1.4140769136170226 -0.17046075107180886
22.650000000000002 1.4954589853564726 -0.029844857604116815 1.4004211384490994 -0.18497853753750831
22.700000000000003 1.4847163437841553 -0.042617788134760186 1.3867005552170575 -0.1990745283741741
22.75 1.4739763796507999 -0.05504131743840991 1.3729104382918507 -0.21275322897613436
22.8 1.4632374652203182 -0.06712013625341927 1.3590457631376682 -0.22601900338558947
22.85 1.452497879506111 -0.0788588448501584 1.3451011805129904 -0.23887607097992378
22.900000000000002 1.441755800457622 -0.09026195261790591 1.3310709879542924 -0.251328502750482
22.950000000000003 1.4310092963549954 -0.10133387752040024 1.316949098206765 -0.26338021713016413
23 1.4202563163176716 -0.1120789454078167 1.3027290042187205 -0.27503497532176735
23.05 1.4094946798197834 -0.1225013891714216 1.2884037402610857 -0.28629637607279557
23.1 1.398722065090232 -0.13260534772542715 1.2739658386692363 -0.29716784983533384
23.150000000000002 1.3879359962580102 -0.14239486479859723 1.259407281629762 -0.3076526522414013
23.200000000000003 1.3771338290832722 -0.1518738875158954 1.2447194473476941 -0.31775385681477347
23.25 1.3663127350913271 -0.16104626474787614 1.229893049827957 -0.32747434682939347
23.3 1.3554696838995837 -0.1699157452025436 1.214918071385598 -0.3368168062119242
23.35 1.3446014234957675 -0.1784859752309749 1.1997836868593914 -0.3457837093714325
23.400000000000002 1.3337044581886395 -0.18676049631405003 1.184478178338722 -0.3543773098222913
23.450000000000003 1.3227750239089389 -0.1947427421930561 1.1689888390194172 -0.362599627446715
23.5 1.3118090604871053 -0.20243603560163145 1.1533018645745932 -0.3704524342203989
23.55 1.3008021804740328 -0.20984358455035496 1.1374022301545235 -0.3779372381979205
23.6 1.2897496339998233 -0.21696847810811 1.1212735508064484 -0.38505526552313596
23.650000000000002 1.2786462690810494 -0.22381368161597573 1.1048979227206388 -0.39180744019290925
23.700000000000003 1.2674864866866795 -0.2303820312595913 1.0882557422501289 -0.39819436125907215
23.75 1.2562641897532558 -0.23667622791443102 1.0713254991027423 -0.40421627710225533
23.8 1.24497272519706 -0.24269883016488536 1.0540835394462347 -0.4098730563506018
23.85 1.2336048177998384 -0.24845224638206467 1.0365037938771877 -0.4151641549444823
23.900000000000002 1.222152494638978 -0.25393872572633536 1.0185574642530404 -0.4200885787628859
23.950000000000003 1.210606998485113 -0.25916034791816284 1.0002126622391962 -0.42464484112536083
24 1.1989586882904701 -0.2641190115941366 0.9814339910365045 -0.4288309143618163
24.05 1.1871969245278604 -0.26881642103318126 0.9621820600759391 -0.4326441744970098
24.1 1.1753099366982505 -0.27325407099980004 0.9424129204328776 -0.43608133792204834
24.150000000000002 1.1632846697855816 -0.2774332294053691 0.9220774062451191 -0.43913838871553607
24.200000000000003 1.1511066057775479 -0.2813549174332904 0.9011203644227904 -0.4418104950245587
24.25 1.1387595555608703 -0.2850198867070813 0.8794797513025077 -0.4440919126113431
24.3 1.1262254155020248 -0.2884285929995736 0.8570855704908513 -0.44597587330410166
24.35 1.1134838817924229 -0.2915811658829852 0.8338586208121022 -0.44745445564698105
24.400000000000002 1.1005121141113765 -0.294477373599547 0.8097090168549121 -0.4485184345084241
24.450000000000003 1.0872843382657993 -0.2971165822853806 0.7845344369284741 -0.44915710576122747
24.5 1.0737713751078708 -0.29949770849986035 0.7582180441321495 -0.44935808137022093
24.55 1.0599400800916527 -0.30161916379047427 0.7306260156114913 -0.4491070492919942
24.6 1.0457526741575665 -0.3034787897488376 0.7016046029501487 -0.44838749148236384
24.650000000000002 1.031165942043956 -0.3050737816739452 0.6709766333350657 -0.44718035200132394
24.700000000000003 1.0161302683893547 -0.30640059853765655 0.6385373474482854 -0.4454636456916777
24.75 1.0005884748319847 -0.3074548564244684 0.6040494577261615 -0.44321199619750073
24.8 0.9844744124115961 -0.3082312019678265 0.5672373030594726 -0.4403960902356347
24.85 0.9677112525727968 -0.3087231614981624 0.5277799793686345 -0.4369820331700773
24.900000000000002 0.9502094065916432 -0.3089229606174799 0.4853033507229212 -0.43293058933894274
24.950000000000003 0.9318639869945319 -0.3088213076804989 0.4393709116805101 -0.4281962897652178
25 0.9125517054104836 -0.3084071331491256 0.38947361026233496 -0.4227263907813664
25.05 0.8921270796659836 -0.3076672749542303 0.33501900536640694 -0.41645967134445444
25.1 0.8704178001195416 -0.30658609781993323 0.2753206080832249 -0.4093250671762204
25.150000000000002 0.8472190843506592 -0.3051450319916731 0.20958907739625587 -0.4012401608890901
25.200000000000003 0.8222868366368982 -0.30332201404916304 0.13692830747421497 -0.392109586238788
25.25 0.7953294357519038 -0.30109080971540353 0.05634163244444336 -0.38182347273624395
25.3 0.765998021426805 -0.29842019628915606 -0.03324328977234746 -0.3702561700781537
25.35 0.7338752682346206 -0.295272981451958 -0.13291763060550343 -0.3572656707325202
25.400000000000002 0.6984628720253812 -0.29160483729295644 -0.2436834216476914 -0.3426944138355188
25.450000000000003 0.6591683855310155 -0.2873629358585871 -0.3662698766139669 -0.3263725090510442
25.5 0.6152926734922824 -0.2824843886096809 -0.5008490857524737 -0.3081248178131479
25.55 0.5660200931240427 -0.2768945202748998 -0.6466409005213721 -0.2877836027963622
25.6 0.5104143407677937 -0.27050504924428326 -0.8014427095036892 -0.2652082210480358
25.650000000000002 0.4474232075618271 -0.26321229722410816 -0.9612117012164243 -0.24031195569005886
25.700000000000003 0.3758943798251274 -0.2548955940695721 -1.1199522871695058 -0.2130929106358947
25.75 0.2946012550792049 -0.2454160507304223 -1.270233659898948 -0.18366111938176818
25.8 0.20227377502363536 -0.23461582070897785 -1.4045135032038085 -0.15224994765614291
25.85 0.09762977381547423 -0.2223178896442669 -1.5169707883500252 -0.11920103654158348
25.900000000000002 -0.020584437815187248 -0.2083264672483427 -1.6050097015279339 -0.08492163481276174
25.950000000000003 -0.153506535738836 -0.1924284418167655 -1.6695875436833083 -0.04982722919812054
26 -0.3019532791908156 -0.17439725256747923 -1.7142644704665515 -0.014290122844812882
26.05 -0.466015678761473 -0.1540017919792517 -1.7436883689060123 0.021390754494564734
26.1 -0.6444043846792162 -0.13102401917788875 -1.762334783492973 0.056996502677697077
26.150000000000002 -0.8336010574163223 -0.10528886730128642 -1.7738412032269901 0.09237876551290684
26.200000000000003 -1.0270867394115906 -0.07670725680792682 -1.7808296528710807 0.1274433421989421
26.25 -1.2152220337613058 -0.04532596675115933 -1.7849815456696587 0.1621331612079393
26.3 -1.3865039676724311 -0.011367367180075402 -1.787200769607191 0.19641346387556058
26.35 -1.5304205747804367 0.024765642386087368 -1.7878061797906493 0.23026014915898863
26.400000000000002 -1.6407968849183394 0.06253643901321408 -1.7867505481866104 0.2636517031409587
26.450000000000003 -1.7175061207490954 0.10136301232661249 -1.783853589659595 0.2965650033518835
26.5 -1.76537293682488 0.14071025161993023 -1.7789961465298292 0.328974739929749
26.55 -1.7913789351907525 0.1801485762449807 -1.7722167549351728 0.3608552681755483
26.6 -1.8022017781577262 0.21936798248549338 -1.7637038002778012 0.3921831762627656
26.650000000000002 -1.803053822337682 0.2581617084079475 -1.7537308939865943 0.42293921496136033
26.700000000000003 -1.797558536503431 0.29639940228610695 -1.7425892405317318 0.4531090993639621
26.75 -1.7880741446388602 0.33400231376964773 -1.7305434436583653 0.48268336779781296
26.8 -1.7760821069413162 0.37092475062691865 -1.7178122832994682 0.5116567139477346
26.85 -1.762497606296944 0.40714160876567557 -1.7045660879092188 0.5400271456848005
26.900000000000002 -1.7478826883669487 0.4426404333399275 -1.6909322615170448 0.5677951792361084
26.950000000000003 -1.7325825233972174 0.4774164983348134 -1.677003473359269 0.5949631584120397
27 -1.71680959217586 0.5114697894503233 -1.6628457124664162 0.6215347183050318
27.05 -1.70069493405802 0.5448031562260897 -1.6485051025459627 0.6475143800813774
27.1 -1.6843192185951024 0.5774211750451044 -1.6340132425346752 0.6729072524983967
27.150000000000002 -1.6677316235475195 0.6093294436924273 -1.6193912101143515 0.6977188152908432
27.200000000000003 -1.6509613676767645 0.6405341388330138 -1.604652481707192 0.7219547631584687
27.25 -1.6340248071064507 0.671041734687529 -1.5898050247511157 0.7456208936152973
27.3 -1.6169298353575199 0.7008588212960183 -1.5748527788205375 0.7687230261216792
27.35 -1.5996786306003468 0.7299919847861942 -1.5597966944700752 0.7912669433008032
27.400000000000002 -1.5822693794135558 0.758447726509482 -1.5446354556144355 0.8132583476204508
27.450000000000003 -1.5646973592824152 0.7862324066488213 -1.529365976624216 0.8347028288178469
27.5 -1.5469556138603915 0.8133522032314594 -1.5139837390643909 0.8556058387097009
27.55 -1.52903536541013 0.839813080755636 -1.4984830137600371 0.8759726709963547
27.6 -1.5109262541634592 0.865620764669256 -1.4828570000450447 0.895808444347202
27.650000000000002 -1.4926164606278087 0.8907807192039519 -1.467097904218927 0.9151180875265319
27.700000000000003 -1.4740927458311617 0.9152981268599854 -1.4511969722797775 0.9339063256447002
27.75 -1.4553404311845266 0.9391778683325892 -1.4351444870725856 0.9521776668418642
27.8 -1.4363433310614209 0.9624245019763991 -1.4189297364755895 0.9699363888604792
27.85 -1.4170836455268558 0.9850422420878344 -1.402540956702084 0.987186525059207
27.900000000000002 -1.3975418167705018 1.0070349353864856 -1.3859652529076996 1.0039318494790987
27.950000000000003 -1.3776963500062842 1.0284060351208135 -1.3691884978408135 1.0201758606025106
28 -1.3575235974430628 1.0491585722258645 -1.3521952080964013 1.035921763452499
28.05 -1.3369975021103175 1.069295122929904 -1.3349683965138182 1.0511724496693065
28.1 -1.3160892966317919 1.088817772147217 -1.317489398307084 1.065930475173142
28.150000000000002 -1.2947671503237739 1.107728071907059 -1.299737667559738 1.0801980349794966
28.200000000000003 -1.2729957561248635 1.126026993952755 -1.2816905396918579 1.0939769346743444
28.25 -1.2507358467218705 1.143714875497058 -1.263322954353715 1.1072685579803172
28.3 -1.2279436266994472 1.160791356934976 -1.2446071318554985 1.120073829748878
28.35 -1.2045701044721575 1.1772553100860972 -1.2255121946344736 1.1323931735941184
28.400000000000002 -1.180560303994898 1.1931047552554017 -1.2060037233058216 1.1442264632363088
28.450000000000003 -1.1558523315929703 1.2083367650521022 -1.1860432344381482 1.1555729664414411
28.5 -1.1303762674605624 1.2229473524742136 -1.1655875642100484 1.1664312802186374
28.55 -1.1040528441375255 1.2369313402318447 -1.144588138375918 1.1767992556599585
28.6 -1.0767918652021775 1.2502822076186844 -1.1229901042865957 1.1866739104634108
28.650000000000002 -1.0484903060289401 1.2629919104159448 -1.100731294801542 1.1960513267525217
28.700000000000003 -1.0190300241557722 1.2750506682846772 -1.0777409864421574 1.2049265312724708
28.75 -0.9882749888605379 1.2864467128189492 -1.053938404614447 1.2132933543747333
28.8 -0.9560679170997328 1.2971659878294106 -1.0292309165828206 1.2211442633624823
28.85 -0.9222261750563957 1.3071917914255176 -1.0035118373425362 1.2284701647097622
28.900000000000002 -0.8865367702032937 1.316504346971294 -0.976657753637121 1.2352601683270072
28.950000000000003 -0.8487502172446543 1.3250802868969103 -0.9485252458561578 1.2415013053444048
29 -0.8085730124558863 1.3328920295436313 -0.9189468548791813 1.247178188721315
29.05 -0.7656583962967218 1.3399070246031586 -0.8877260992321401 1.2522726032356564
29.1 -0.7195950286335883 1.346086837239038 -0.8546312950569079 1.2567630079014414
29.150000000000002 -0.6698931561956193 1.3513860347418318 -0.8193878651799354 1.2606239294111534
29.200000000000003 -0.61596784290125 1.3557508329692756 -0.78166874235187 1.2638252195787627
29.25 -0.5571189101203509 1.3591174538721031 -0.7410823756934527 1.2663311427358859
29.3 -0.4925074911457508 1.3614101423154565 -0.6971577432721836 1.2680992504190973
29.35 -0.4211297197377327 1.3625387946301764 -0.6493256724279383 1.2690789904579558
29.400000000000002 -0.34178936794759274 1.3623961714222625 -0.5968957089504978 1.269209986132392
29.450000000000003 -0.25307378531244 1.3608547189334324 -0.5390278347689568 1.2684199097631657
29.5 -0.15334220396774123 1.3577631347378962 -0.47469867195753535 1.266621867250764
29.55 -0.04074378816497802 1.3529430321318519 -0.4026627443492298 1.263711212932076
29.6 0.0867034523468898 1.3461864570425255 -0.3214114951098556 1.2595617424468786
29.650000000000002 0.23092127893107872 1.3372556906958153 -0.2291371637631751 1.2540212936915407
29.700000000000003 0.39339090598396287 1.3258878195701524 -0.12371715267052295 1.2469069749992614
29.75 0.5744922764396972 1.3118079207655964 -0.0027499580254690126 1.2380006260125562
29.8 0.7725076690342039 1.2947558826730794 0.13630061170270505 1.2270458403712543
29.85 0.9824039711337517 1.2745313218744723 0.2957593991539925 1.2137491138821788
29.900000000000002 1.194898262141825 1.2510558394517197 0.4770608073986963 1.1977895209667546
29.950000000000003 1.3968263372860519 1.224439166596992 0.6796084734891766 1.1788434256752547
30 1.5738624680993847 1.1950186933884468 0.8991910390025692 1.1566315709852322
30.05 1.7152319388541197 1.163336529161737 1.1264132314309714 1.1309918211380243
30.1 1.8176376379341823 1.130044862996716 1.3463610920027442 1.1019668035107504
30.150000000000002 1.8852763929920735 1.095779713407036 1.541188270338854 1.0698716223456595
30.200000000000003 1.9262380156032741 1.0610662266202204 1.6960056234945005 1.0352900330299268
30.25 1.9486278690052505 1.026287564020877 1.804939157766485 0.9989710896414573
30.3 1.9587075576804167 0.9917020238659734 1.8723864279335776 0.9616661969537158
30.35 1.9607866158664307 0.9574763416060462 1.9086404021361267 0.9239943204680774
30.400000000000002 1.9577256489806176 0.9237152593196636 1.9243632048817694 0.8863915194488791
30.450000000000003 1.9514072567891605 0.8904825829045793 1.9276771109503277 0.8491314642764866
30.5 1.9430567184553666 0.8578153599975287 1.923840026905108 0.8123726410585914
30.55 1.9334577713439944 0.8257333968902011 1.9159728193128298 0.7762015756556938
30.6 1.923102884656663 0.7942455971453654 1.9058505001157577 0.7406628262758632
30.650000000000002 1.9122971598414864 0.7633540969192036 1.8944650261666842 0.7057772902043004
30.700000000000003 1.9012278287713025 0.733056899698948 1.882368671797912 0.6715527125749914
30.75 1.8900091644511865 0.7033495221908077 1.8698700118422311 0.637989558771423
30.8 1.8787107379021486 0.6742260083268767 1.857142683326853 0.6050842680237588
30.85 1.867374877944217 0.6456795486481451 1.8442852051931784 0.5728310582342226
30.900000000000002 1.8560273405994814 0.6177028569370118 1.8313539107048578 0.5412229335020314
30.950000000000003 1.844683790655786 0.5902883988527595 1.8183811895207385 0.5102522515946127
31 1.833353730520822 0.5634285307342581 1.8053856824637438 0.47991104678721375
31.05 1.822042882731095 0.5371155839385673 1.7923780375759526 0.45019121542350404
31.1 1.8107546380092243 0.5113419161222977 1.779364195433126 0.42108462362870047
31.150000000000002 1.7994909385041316 0.4860999424048588 1.7663472849594444 0.39258317039422796
31.200000000000003 1.788252818912048 0.46138215424233003 1.7533287293159658 0.364678824797764
31.25 1.7770407396498369 0.4371811307613361 1.7403088977394976 0.3373636480739012
31.3 1.7658547930674109 0.4134895454453523 1.7272874934890023 0.3106298067225026
31.35 1.754694831739512 0.39030016994335653 1.714263786714892 0.28446958026694796
31.400000000000002 1.7435605486555765 0.36760587608975265 1.7012367551852396 0.25887536579452647
31.450000000000003 1.7324515275263874 0.3453996368095186 1.6882051696498201 0.2338396805515357
31.5 1.7213672743979156 0.32367452632838256 1.6751676455583404 0.20935516336102156
31.55 1.7103072374844552 0.30242371995132766 1.6621226740815955 0.1854145753318751
31.6 1.699270819515265 0.2816404935757947 1.6490686402291912 0.16201080014883648
31.650000000000002 1.688257385278027 0.2613182230455698 1.6360038327957795 0.13913684412467844
31.700000000000003 1.6772662660452675 0.2414503834135048 1.6229264490311848 0.11678583612984166
31.75 1.666296761948781 0.22203054815737505 1.6098345958170894 0.09495102747425921
31.8 1.655348142977663 0.203052388378079 1.5967262884519493 0.07362579179106685
31.85 1.644419649029728 0.18450967199977952 1.583599447724592 0.0528036249563765
31.900000000000002 1.633510489289701 0.16639626298546342 1.5704518956933953 0.0324781450696872
31.950000000000003 1.622619841107297 0.14870612057749458 1.5572813504208112 0.012643092513622289
32 1.6117468484833464 0.13143329857026323 1.5440854198052678 -0.006707669891833509
32.050000000000004 1.6008906202295683 0.11457194462049072 1.5308615945815016 -0.0255801566274025
32.1 1.5900502278392585 0.09811629959981756 1.517607240512214 -0.04398025909265231
32.15 1.5792247030869009 0.08206069699377994 1.504319589759904 -0.061913745092229744
32.2 1.5684130353612293 0.0663995623510373 1.4909957314023117 -0.07938625817797805
32.25 1.5576141687264415 0.051127412786668394 1.4776326010346288 -0.0964033168341097
32.300000000000004 1.5468269986987178 0.036238856543453435 1.4642269693841614 -0.11297031349168479
32.35 1.5360503687190254 0.02172859261527369 1.4507754298469548 -0.1290925133574549
32.4 1.5252830662977632 0.00759141043706652 1.4372743848399043 -0.1447750530406898
32.45 1.5145238188017085 -0.006177810353835026 1.423720030845288 -0.16002293895990988
32.5 1.5037712888486714 -0.019584100079678944 1.4101083420068203 -0.17484104550948767
32.550000000000004 1.493024069269979 -0.032632399101738194 1.3964350521166746 -0.18923411296383713
32.6 1.4822806775952477 -0.0453275578107386 1.3826956348109305 -0.20320674509434614
32.65 1.4715395500076554 -0.05767433652106292 1.3688852817660346 -0.21676340647128955
32.7 1.4607990347109574 -0.06967740526069786 1.3549988786605205 -0.22990841941963575
32.75 1.4500573846416178 -0.08134134344795299 1.3410309786337895 -0.24264596059387453
32.800000000000004 1.4393127494504823 -0.09267063944491483 1.326975772936457 -0.2549800571326775
32.85 1.4285631666681975 -0.10366968997638831 1.312827058423752 -0.26691458234927334
32.9 1.4178065519568506 -0.11434279940169989 1.2985782014937315 -0.27845325090778433
32.95 1.4070406883368098 -0.12469417882516652 1.2842220980144265 -0.28959961342931684
33 1.3962632142621632 -0.13472794502924387 1.2697511287170686 -0.30035705046418754
33.050000000000004 1.38547161040013 -0.14444811921231931 1.2551571094545688 -0.31072876575815245
33.1 1.3746631849489117 -0.15385862551077087 1.2404312356334277 -0.3207177787306923
33.15 1.3638350573041402 -0.16296328928222292 1.2255640200208282 -0.3303269160720819
33.2 1.3529841398557492 -0.1717658351238364 1.2105452230039133 -0.3395588023528679
33.25 1.342107117664008 -0.1802698845959075 1.1953637742317025 -0.34841584952419097
33.300000000000004 1.3312004257247068 -0.18847895361693387 1.1800076843975311 -0.3569002451697427
33.35 1.3202602234879972 -0.19639644949154492 1.1644639457162507 -0.3650139393495997
33.4 1.3092823662418804 -0.2040256675271695 1.1487184194095281 -0.37275862985220076
33.45 1.2982623729081924 -0.21136978718889107 1.1327557082269701 -0.3801357456426866
33.5 1.2871953897242723 -0.21843186773445603 1.1165590116913684 -0.3871464282629387
33.550000000000004 1.2760761491949442 -0.22521484326265367 1.1001099613520544 -0.3937915109000132
33.6 1.2648989235941508 -0.2317215170980427 1.0833884328476255 -0.40007149479414317
33.65 1.253657472170031 -0.23795455542296554 1.0663723310016409 -0.4059865226037345
33.7 1.242344981057109 -0.24391648005362293 1.0490373434820548 -0.41153634828115354
33.75 1.2309539947192416 -0.24960966024024875 1.0313566577223647 -0.4167203029376155
33.800000000000004 1.2194763375304638 -0.2550363033516108 1.0133006347993483 -0.4215372560856968
33.85 1.2079030238396944 -0.2601984442805322 0.9948364327516223 -0.425985571540953
33.9 1.1962241545492798 -0.2650979333790994 0.9759275703595316 -0.4300630571362235
33.95 1.1844287978538472 -0.2697364226987403 0.9565334206343995 -0.43376690724903255
34 1.1725048513190903 -0.2741153502702277 0.9366086211161292 -0.43709363695868536
34.050000000000004 1.1604388819100153 -0.2782359221104335 0.9161023854703833 -0.44003900642864885
34.1 1.1482159398798701 -0.28209909158449564 0.8949576977112366 -0.4425979338436303
34.15 1.1358193415729985 -0.2857055356817034 0.8731103665347975 -0.4447643949097462
34.2 1.1232304151375316 -0.28905562767802456 0.8504879125964669 -0.4465313065386477
34.25 1.1104282018370457 -0.29214940555424845 0.8270082559429428 -0.44789039186847346
34.300000000000004 1.0973891040307455 -0.2949865354117691 0.8025781640493477 -0.4488320232095452
34.35 1.0840864688794054 -0.29756626897249977 0.7770914128398901 -0.44934503882167093
34.4 1.0704900943283011 -0.2998873940582971 0.7504266035395308 -0.44941652861123565
34.45 1.056565640791802 -0.30194817670976004 0.722444567140804 -0.4490315828568448
34.5 1.042273928058448 -0.3037462933132834 0.6929852757664686 -0.4481729969095032
34.550000000000004 1.0275700920533515 -0.30527875074489896 0.661864166684902 -0.4468209234491053
34.6 1.0124025699957733 -0.3065417920923686 0.6288677712201971 -0.4449524623076274
34.65 0.9967118748851433 -0.30753078496167546 0.5937485294132796 -0.44254117611143284
34.7 0.9804291108043942 -0.3082400886840455 0.5562186660613062 -0.43955651812206525
34.75 0.9634741688799882 -0.3086628958830084 0.5159430119874769 -0.43596315683178677
34.800000000000004 0.9457535295265255 -0.3087910428002616 0.4725306888895805 -0.43172018042732235
34.85 0.9271575795677545 -0.30861478147206256 0.425525658874923 -0.4267801637889272
34.9 0.907557332967073 -0.30812250525075113 0.37439630778030175 -0.4210880823412907
34.95 0.8868004218026665 -0.30730041724048046 0.3185245454435569 -0.41458006271779124
35 0.8647062015151075 -0.30613212894376945 0.2571954638523202 -0.40718197303540626
35.050000000000004 0.8410597951796052 -0.30459817382422943 0.18958954671546718 -0.3988078808302177
35.1 0.8156048931339526 -0.3026754177032324 0.11478099316932798 -0.3893584526368607
35.15 0.7880351403239519 -0.3003363452212453 0.031748199634135166 -0.3787194482744505
35.2 0.7579840071517456 -0.2975481996054781 -0.0605938411426335 -0.3667605925692611
35.25 0.7250131862611134 -0.29427195277368684 -0.16332435565966985 -0.35333530872864644
35.300000000000004 0.6885998377229219 -0.2904610861510071 -0.27738995096060554 -0.3382820889755354
35.35 0.6481234758913665 -0.28606017213681556 -0.4033946198512901 -0.3214286541945582
35.4 0.602853988352104 -0.28100326532554615 -0.5412837514230797 -0.30260044189935936
35.45 0.5519431423538014 -0.2752121445164328 -0.6899210726895056 -0.2816351406606264
35.5 0.49442268432493275 -0.2685944915149486 -0.8466153933716052 -0.2584045012810523
35.550000000000004 0.42921212911990586 -0.2610421432767577 -1.0067588980659874 -0.2328428166957472
35.6 0.355137656020215 -0.25242958974876206 -1.1638616875878234 -0.20497774991705375
35.65 0.2709598476005881 -0.2426128804140195 -1.3102954993624114 -0.17495426591453056
35.7 0.17540454513234865 -0.2314290337867855 -1.4388187504935195 -0.14303933660425394
35.75 0.06719434286433379 -0.2186959744664274 -1.544415706704071 -0.10959854399955105
35.800000000000004 -0.054903882640791254 -0.20421312967065136 -1.6255304828052826 -0.07504737972092618
35.85 -0.1919680432833562 -0.18776333844031812 -1.6839986663636637 -0.03979347504101524
35.9 -0.34466961371017935 -0.1691177536194814 -1.7238436311662642 -0.004190199831132162
35.95 -0.5128031689100586 -0.14804669316685126 -1.7497666945027608 0.03148650469878438
36 -0.694566910066979 -0.12434026416044798 -1.7660467358881817 0.06703922765691667
36.050000000000004 -0.8856961003938454 -0.09784193083734744 -1.7760358355217218 0.10233679798474438
36.1 -1.0787981829423803 -0.0684943998089632 -1.782076540382328 0.1372972625942341
36.15 -1.2635376216333816 -0.03638889638208003 -1.785613238173597 0.17187132914508152
36.2 -1.4283454391081691 -0.0017979980773930454 -1.7873652634640682 0.20602840034930586
36.25 -1.5635790344342462 0.0348325510215214 -1.787525457466157 0.23974589224099152
36.300000000000004 -1.6646402522075634 0.07294424104666994 -1.7859850947480005 0.27300222460723644
36.35 -1.7329527782286063 0.1119595315309673 -1.7825625010673172 0.30577368518279313
36.4 -1.7742163693385806 0.15136794061273223 -1.7771749926555562 0.33803467443830587
36.45 -1.7955227686502855 0.1907724026637764 -1.7699048716202184 0.3697599305978807
36.5 -1.8032145048706578 0.2298931221580153 -1.760970213448527 0.4009270319263723
36.550000000000004 -1.8020591113460331 0.26854664245418053 -1.7506549209161986 0.43151803938895555
36.6 -1.7952997482659114 0.3066187288439924 -1.7392460282519533 0.46152001188007935
36.65 -1.7850221058905658 0.344041091251616 -1.7269967079632926 0.4909246836061091
36.7 -1.7725286582918518 0.38077459440602374 -1.7141124208419696 0.5197277219019587
36.75 -1.7586220931185654 0.4167981739252291 -1.700751183229232 0.547927881666717
36.800000000000004 -1.7437951724301533 0.4521018454628459 -1.6870302071479861 0.5755262286135914
36.85 -1.7283506817893688 0.4866823896678206 -1.6730342305521737 0.6025254976440391
36.9 -1.7124751373078015 0.5205407090364031 -1.6588232927073736 0.628929594018641
36.95 -1.6962835700101497 0.5536802077826498 -1.644439149852694 0.6547432194674618
37 -1.6798466815994695 0.5861057930247562 -1.6299102325867718 0.6799715980870268
37.050000000000004 -1.6632073638518081 0.6178232533779456 -1.6152553305665511 0.7046202779301625
37.1 -1.6463908091040482 0.6488388678270612 -1.6004862654653136 0.7286949882375444
37.15 -1.6294107443663184 0.679159156067142 -1.58560979937404 0.7522015367624082
37.2 -1.6122733044860775 0.7087907164295532 -1.5706289822685398 0.7751457356048517
37.25 -1.5949794543242077 0.737740118448509 -1.5555440950240214 0.7975333471282988
37.300000000000004 -1.5775265096879432 0.7660138297306597 -1.5403533035556047 0.8193700439108852
37.35 -1.5599090916453593 0.7936181644339574 -1.525053107397775 0.8406613784230816
37.4 -1.542119719543098 0.8205592453324039 -1.5096386418385863 0.8614127593675887
37.45 -1.524149169687271 0.8468429743202538 -1.4941038750993108 0.8816294324970353
37.5 -1.5059866787035388 0.8724750079949264 -1.4784417294283627 0.9013164643406546
37.550000000000004 -1.4876200409409157 0.8974607360729028 -1.462644146020666 0.9204787276986534
37.6 -1.4690356307161936 0.9218052610910683 -1.4467021073353092 0.9391208880573331
37.65 -1.4502183683924572 0.9455133782816639 -1.430605625887687 0.9572473902781167
37.7 -1.4311516416337529 0.9685895547767163 -1.4143437053739607 0.9748624450467499
37.75 -1.4118171880818893 0.9910379074556985 -1.39790427764327 0.9919700146539357
37.800000000000004 -1.3921949421719442 1.0128621788340422 -1.3812741172809477 1.008573797728383
37.85 -1.37226284621776 1.034065710421902 -1.364438734200531 1.0246772125663228
37.9 -1.3519966238559944 1.054651412975357 -1.3473822435167335 1.040283378703547
37.95 -1.3313695121685276 1.0746217330233354 -1.330087210977018 1.0553950963603262
38 -1.310351947118245 1.0939786149863888 -1.312534471281852 1.070014823357882
38.050000000000004 -1.288911195186589 1.112723458108577 -1.2947029156537442 1.0841446490578583
38.1 -1.2670109221685375 1.1308570672994502 -1.2765692439606358 1.0977862648127508
38.15 -1.2446106878431058 1.1483795968257495 -1.2581076754991958 1.1109409303338234
38.2 -1.2216653525696684 1.1652904855962856 -1.239289611133083 1.123609435280952
38.25 -1.198124378619496 1.181588382540666 -1.220083237786138 1.135792055252201
38.300000000000004 -1.1739310050672047 1.1972710602827672 -1.2004530642220668 1.1474885011946476
38.35 -1.1490212701284828 1.212335314939701 -1.1803593744909642 1.1586978610652434
38.400000000000006 -1.1233228486768847 1.226776849419355 -1.1597575822510915 1.1694185323326516
38.45 -1.0967536649754854 1.2405901370226025 -1.1385974652058215 1.179648143616809
38.5 -1.0692202310072716 1.253768261452229 -1.116822253904571 1.1893834633980125
38.550000000000004 -1.0406156486682023 1.2663027284545205 -1.0943675428509987 1.1986202932731023
38.6 -1.0108171988665828 1.2781832432271596 -1.0711599838637573 1.2073533426689163
38.650000000000006 -0.9796834214881631 1.2893974463634206 -1.047115711454817 1.2155760812118628
38.7 -0.9470505663472804 1.299930599399443 -1.022138436993746 1.2232805640574334
38.75 -0.9127282656727816 1.3097652089056828 -0.9961171317955999 1.2304572243534573
38.800000000000004 -0.8764942424262596 1.3188805754177133 -0.9689231979584189 1.2370946255797117
38.85 -0.8380878251722743 1.3272522502255275 -0.9404069984603857 1.2431791646891013
38.900000000000006 -0.7972019895317383 1.3348513790224874 -0.9103935830688905 1.2486947146634269
38.95 -0.7534735906473596 1.3416439065647088 -0.8786774020602091 1.2536221921526955
39 -0.7064713969024264 1.3475896107909053 -0.8450157434185643 1.2579390321212927
39.050000000000004 -0.6556814968726049 1.3526409284573635 -0.8091205589642642 1.2616185466738932
39.1 -0.6004896593510293 1.3567415277791646 -0.7706482594347954 1.2646291392496465
39.150000000000006 -0.5401603398145118 1.3598245781042508 -0.7291869589925506 1.2669333379268863
39.2 -0.4738123591825335 1.3618106649722717 -0.6842405427840763 1.2684866025133228
39.25 -0.40039204153802627 1.362605306369442 -0.6352088363230183 1.2692358494690967
39.300000000000004 -0.3186461623143577 1.36209605273283 -0.5813631175665211 1.2691176271175797
39.35 -0.22710007652830116 1.3601492178380499 -0.5218163275189869 1.2680558628028538
39.400000000000006 -0.12405192764509428 1.356606422674055 -0.4554877972482476 1.265959097809428
39.45 -0.007603444361409639 1.3512813937410593 -0.3810634964599074 1.2627171338395822
39.5 0.12423664717050095 1.3439579224992357 -0.2969554297552253 1.258197054455378
39.550000000000004 0.27331835392156123 1.3343906662804008 -0.20126912673622904 1.2522386901576115
39.6 0.44090264466344753 1.3223116227857128 -0.09179828999315641 1.244649828298602
39.650000000000006 0.6269107734202959 1.307446506504292 0.033916385220815845 1.2352019323735275
39.7 0.8288440330805432 1.289546166533538 0.17839833101897912 1.2236279826577166
39.75 1.0405708918111096 1.268436697878375 0.34381134177295425 1.2096254514530256
39.800000000000004 1.2516280599323086 1.244084820133158 0.5311634464857443 1.1928694055066742
39.85 1.4481526229736836 1.2166604442950542 0.7390300878016344 1.1730427104125765
39.900000000000006 1.6162812493844094 1.1865623102600202 0.9619001710891997 1.1498902589490194
39.95 1.7470100799035209 1.1543744489818306 1.1887915188632705 1.1232978021802105
40 1.8392778325487433 1.1207570191042824 1.4035640738247035 1.093378662455487
40.050000000000004 1.8987795272685506 1.0863227785212568 1.588503469578771 1.0605268187615478
40.1 1.9339282571801422 1.0515587375283038 1.7307335811411495 1.0253859762536797
40.150000000000006 1.9524192811248555 1.0168111504838016 1.8273799850413373 0.9887225639363233
40.2 1.9599502848258024 0.9823100178293169 1.8850609363908433 0.9512616187201426
40.25 1.9603829266409545 0.9482025879202445 1.9146474739764294 0.9135727576124897
40.300000000000004 1.956271899086219 0.9145806589764256 1.9262537342735788 0.8760430938894147
40.35 1.9492942245301839 0.8814995294035369 1.9271696581264286 0.8389095073240924
40.400000000000006 1.9405362960177606 0.8489907242326213 1.9219752845288662 0.8023067715033495
40.45 1.9306892946385852 0.817070530092617 1.9133480551555007 0.7663073627616857
40.5 1.9201855509010242 0.7857456506875503 1.9028005016224052 0.730947861664225
40.550000000000004 1.9092920387453254 0.7550168708061591 1.8911761491085108 0.6962447197530189
40.6 1.8981722636513685 0.7248813762123256 1.8789448477195918 0.6622032202301982
40.650000000000006 1.8869259132481189 0.6953341961677527 1.8663695740073003 0.6288224666405233
40.7 1.8756136541364816 0.6663690894763642 1.8535986408443357 0.5960981457826784
40.75 1.8642723945693538 0.637979084769711 1.8407163900518204 0.5640240624640294
40.800000000000004 1.8529245905168574 0.6101568087770288 1.8277711370687506 0.5325929982254098
40.85 1.8415838931241546 0.5828946855615222 1.8147906852553635 0.5017971963173501
40.900000000000006 1.83025857126228 0.5561850574898903 1.8017910200277614 0.47162863839513763
40.95 1.8189535878087835 0.530020258749033 1.7887812322247827 0.44207920400205614
41 1.8076718625955712 0.5043926600457497 1.7757663367209067 0.41314076338527245
41.050000000000004 1.7964150435819168 0.4792946957534333 1.7627489038526751 0.3848052319766338
41.1 1.7851839799218459 0.4547188803244847 1.7497300138756398 0.3570646025900426
41.150000000000006 1.773979013639631 0.4306578181088015 1.736709821104072 0.32991096452991986
41.2 1.762800160411486 0.4071042091028376 1.7236878905034727 0.3033365149360619
41.25 1.7516472221851291 0.3840508521761511 1.7106634001552214 0.27733356548347177
41.300000000000004 1.7405198576516712 0.36149064672864356 1.6976352637809267 0.25189454628365116
41.35 1.7294176264860581 0.3394165933694405 1.6846022050861382 0.22701200809272468
41.400000000000006 1.718340017146723 0.31782179398618193 1.6715628027270422 0.2026786234955166
41.45 1.7072864642913128 0.2966994514364673 1.6585155171418489 0.1788871874753094
41.5 1.6962563595772913 0.2760428690081999 1.6454587060299501 0.15563061762328942
41.550000000000004 1.6852490582060566 0.2558454497425392 1.6323906326065432 0.1329019541473436
41.6 1.6742638826948686 0.23610069567988454 1.6193094691631877 0.11069435978223727
41.650000000000006 1.6633001248153065 0.2168022070683102 1.6062132974943728 0.08900111966774292
41.7 1.652357046294304 0.19794368156055087 1.5931001071545703 0.06781564123935713
41.75 1.6414338786570342 0.17951891341715895 1.5799677921407276 0.047131454162647635
41.800000000000004 1.6305298224527462 0.16152179272804837 1.5668141463631293 0.026942210333873635
41.85 1.6196440460158177 0.14394630466119762 1.5536368581198197 0.007241683964400881
41.900000000000006 1.6087756838565774 0.12678652874511004 1.5404335036940202 -0.011976228236589951
41.95 1.5979238347385005 0.11003663819028156 1.5272015401304397 -0.030717506768258292
42 1.5870875594729674 0.09369089925412406 1.513938297202821 -0.04898800892101892
42.050000000000004 1.5762658784453976 0.07774367065335801 1.5006409685538618 -0.06679346822422161
42.1 1.5654577688742655 0.06218940302770682 1.4873066019649444 -0.08413949374624725
42.150000000000006 1.5546621617954337 0.04702263845872477 1.4739320886937914 -0.10103156923396689
42.2 1.5438779387571429 0.0322380100477243 1.4605141518011915 -0.11747505207751097
42.25 1.5331039282050831 0.01783024155700947 1.4470493333719057 -0.13347517208503554
42.300000000000004 1.5223389015316797 0.003794147118953097 1.4335339805187874 -0.14903703005066063
42.35 1.5115815687586682 -0.00987536898213176 1.4199642300422775 -0.16416559609698972
42.400000000000006 1.5008305738169347 -0.023183312449883628 1.4063359915991467 -0.17886570777158403
42.45 1.4900844893822323 -0.03613459903153254 1.3926449292141232 -0.1931420678744357
42.5 1.4793418112195704 -0.04873405448261474 1.3788864409453043 -0.20699924199082714
42.550000000000004 1.4686009519826517 -0.06098641443333751 1.3650556364884874 -0.220441655700939
42.6 1.4578602344075247 -0.07289632414831437 1.35114731247615 -0.23347359143412325
42.650000000000006 1.4471178838314764 -0.08446833817041946 1.337155925193103 -0.24609918493183433
42.7 1.43637201995891 -0.0957069198384062 1.3230755603920539 -0.2583224212787328
42.75 1.4256206477853395 -0.10661644066668023 1.3088998998475618 -0.2701471304563638
42.800000000000004 1.414861647578447 -0.11720117957418894 1.2946221842350727 -0.2815769823679621
42.85 1.404092763801111 -0.12746532194776158 1.2802351718616654 -0.2926154812762306
42.900000000000006 1.393311592845095 -0.13741295852337643 1.2657310927053058 -0.3032659595882436
42.95 1.382515569425321 -0.14704808406670614 1.2511015971380586 -0.3135315709127684
43 1.3717019514628548 -0.1563745958318578 1.236337698613704 -0.3234152823050954
43.050000000000004 1.3608678032593835 -0.1653962917744292 1.2214297094890423 -0.332919865602675
43.1 1.3500099767364058 -0.17411686849178684 1.206367169017772 -0.34204788774121686
43.150000000000006 1.3391250904777958 -0.1825399188597651 1.1911387624025491 -0.35080169992507804
43.2 1.328209506273918 -0.19066892933070134 1.1757322296102402 -0.3591834255073684
43.25 1.3172593028179107 -0.19850727685276387 1.1601342624421118 -0.3671949464137645
43.300000000000004 1.3062702461487585 -0.20605822536477073 1.1443303880982703 -0.3748378879189911
43.35 1.2952377563696695 -0.21332492181400164 1.1283048371761757 -0.3821136015556313
43.400000000000006 1.2841568700920232 -0.22031039163669222 1.1120403936869234 -0.38902314590055315
43.45 1.2730221979623053 -0.22701753363176722 1.0955182242484882 -0.3955672649438216
43.5 1.2618278765189481 -0.23344911414766223 1.0787176831079952 -0.401746363697317
43.550000000000004 1.2505675134941392 -0.23960776048950022 1.061616089037817 -0.40756048064398354
43.6 1.2392341255178796 -0.2454959534390588 1.0441884694215235 -0.41300925656194704
43.650000000000006 1.227820066992206 -0.25111601876243883 1.0264072659692056 -0.4180918991785661
43.7 1.2163169486755618 -0.2564701175595747 1.0082419954453385 -0.42280714301525435
43.75 1.2047155442421256 -0.2615602352850412 0.9896588575167967 -0.427153203671502
43.800000000000004 1.1930056827476823 -0.2663881692401821 0.9706202802857071 -0.43112772566212626
43.85 1.1811761245288854 -0.2709555143014021 0.9510843922027507 -0.43472772276073335
43.900000000000006 1.1692144175696089 -0.2752636466072605 0.931004406789724 -0.4379495096090058
43.95 1.1571067307653833 -0.27931370487623514 0.910327903849134 -0.4407886231188145
44 1.1448376597780363 -0.2831065689657482 0.8889959874994942 -0.44323973191388377
44.050000000000004 1.1323900002640566 -0.2866428352088555 0.8669422973249005 -0.4452965317196172
44.1 1.119744482139599 -0.2899227879748865 0.844091844023591 -0.4469516242014496
44.150000000000006 1.1068794571589715 -0.292946366790519 0.8203596350216035 -0.44819637625909214
44.2 1.0937705303643601 -0.29571312822354867 0.7956490484117753 -0.4490207561890549
44.25 1.0803901238271727 -0.29822220156704426 0.769849905116467 -0.44941314241103264
44.300000000000004 1.0667069584381628 -0.3004722371591838 0.742836179220954 -0.44936009959302403
44.35 1.0526854361794065 -0.3024613459244773 0.7144632749443155 -0.448846115982195
44.400000000000006 1.0382849011576145 -0.30418702841348805 0.6845647858683664 -0.4478532945315809
44.45 1.023458752486747 -0.3056460912358031 0.6529486383859936 -0.44636098899111987
44.5 1.0081533756246406 -0.3068345483064318 0.6193925081292428 -0.44434537450497813
44.550000000000004 0.9923068506916289 -0.30774750373621584 0.583638387941632 -0.4417789404572726
44.6 0.975847386283949 -0.3083790124643106 0.5453861835321361 -0.4386298914272074
44.650000000000006 0.958691414972761 -0.30872191382186703 0.5042862268381508 -0.4348614403541426
44.7 0.9407412717087525 -0.3087676320917561 0.4599306422409612 -0.4304309767678303
44.75 0.9218823585212442 -0.3085059367464865 0.4118436025535198 -0.42528909293458433
44.800000000000004 0.9019796783320463 -0.30792465336215846 0.35947071265135955 -0.41937845328872786
44.85 0.880873598227889 -0.30700931418567656 0.30216812826763617 -0.41263249975919575
44.900000000000006 0.8583746803458453 -0.30574273496647764 0.23919266641853965 -0.40497400123443716
44.95 0.834257401293032 -0.30410450200101896 0.169695261301817 -0.3963134853880217
45 0.8082525776665652 -0.30207035053913384 0.0927219082607192 -0.38654764472092334
45.050000000000004 0.7800383415801017 -0.29961141313106016 0.007229029801875314 -0.3755578997677227
45.1 0.7492295923066286 -0.29669331486249445 -0.08787570326843842 -0.36320944971908775
45.150000000000006 0.7153660280515498 -0.2932750929830836 -0.19365060887441862 -0.34935136567171143
45.2 0.6778991889475454 -0.28930792319302373 -0.3109728395159643 -0.33381859882814807
45.25 0.6361794742802283 -0.2847336467074028 -0.44030096289370374 -0.3164371670989692
45.300000000000004 0.5894448528957068 -0.27948311464846476 -0.5813278753518426 -0.2970341440950757
45.35 0.5368138605267316 -0.27347440203904305 -0.7325346035410368 -0.27545412664125835
45.400000000000006 0.4772860994980006 -0.2666109913908535 -0.8907262390724644 -0.25158306960308574
45.45 0.4097530768507157 -0.2587800749871993 -1.0507468517919882 -0.22537804738460826
45.5 0.3330199533038567 -0.24985115138569053 -1.2056824901727343 -0.19689730389327254
45.550000000000004 0.24583476492084788 -0.2396750654507913 -1.3478321934480195 -0.16632011846076453
45.6 0.14691924422297103 -0.22808356163483093 -1.4703925551853931 -0.13394427496566158
45.650000000000006 0.03500199631542962 -0.21488937663251012 -1.5692281936496966 -0.10015476808608223
45.7 -0.09112275745994493 -0.19988709691051873 -1.6437857376333542 -0.06537055034273052
45.75 -0.2324540789627011 -0.1828556703312082 -1.6966552154940286 -0.029988023150546918
45.800000000000004 -0.3894796196140001 -0.16356459958421798 -1.7321895527351208 0.005659560076192005
45.85 -0.5616357845867678 -0.14178709155145833 -1.755057120023759 0.04131857992500974
45.900000000000006 -0.7465293229452931 -0.11732401817692319 -1.7693087996659569 0.07681147560471481
45.95 -0.9390783277606501 -0.09004120519171252 -1.778014429177554 0.11202240897526902
46 -1.1310063941817157 -0.05991760011417384 -1.7832534649961882 0.14688001004369675
46.050000000000004 -1.3113940947846408 -0.02709241999753373 -1.7862517662863668 0.1813414139751302
46.1 -1.4688504046086055 0.008111020508929041 -1.7875624649253448 0.2153791583278247
46.150000000000006 -1.5948678338449505 0.04520785831288829 -1.7872717612246893 0.2489714778017595
46.2 -1.686535349285157 0.08362450715649036 -1.7852290345007213 0.2820963616507154
46.25 -1.7467179782286364 0.12279462674117517 -1.7812666432937576 0.31472944036917927
46.300000000000004 -1.7817810753979688 0.16223634934001468 -1.7753454950425713 0.34684494610347294
46.35 -1.7987661463944793 0.20158597356745173 -1.7675910145233917 0.3784181737152054
46.400000000000006 -1.8036153508861383 0.24059286921716733 -1.75824670138961 0.4094278220595376
46.45 -1.8006494069844103 0.2790952953522809 -1.7476025737448837 0.4398573206973228
46.5 -1.7927523268920544 0.31699372551392124 -1.735938895019877 0.4696950734601383
46.550000000000004 -1.7817599590891569 0.3542293053913487 -1.723496305933395 0.4989339806991535
46.6 -1.7688131418894757 0.39076877959087686 -1.7104667849014104 0.5275706435235378
46.650000000000006 -1.7546137019790404 0.42659469699631974 -1.6969963135157733 0.5556045254651992
46.7 -1.7395924544153438 0.4616992811451822 -1.68319232645313 0.5830372096073689
46.75 -1.7240142937518592 0.4960806588557774 -1.6691320345796845 0.6098717970798073
46.800000000000004 -1.7080424903619988 0.5297405511924664 -1.6548698654343856 0.6361124449667553
46.85 -1.691777707273952 0.5626828564655245 -1.6404434693873784 0.6617640224604978
46.900000000000006 -1.6752816701606312 0.5949127747002958 -1.6258783022030234 0.6868318598635199
46.95 -1.6585915874135044 0.6264362613100406 -1.6111910046414004 0.711321567308011
47 -1.6417289931396712 0.6572596819806187 -1.5963918417803924 0.7352389043979922
47.050000000000004 -1.6247052113054183 0.6873895914247793 -1.5814864386666831 0.7585896863915969
47.1 -1.607524757196898 0.7168325889922237 -1.5664770026676769 0.7813797162918886
47.150000000000006 -1.590187467683208 0.7455952223185678 -1.5513631769273062 0.8036147351469294
47.2 -1.572689839393449 0.7736839211726572 -1.5361426307475572 0.8253003850482826
47.25 -1.555025867078049 0.8011049503300254 -1.5208114627952658 0.8464421809054179
47.300000000000004 -1.5371875618814501 0.8278643743839519 -1.5053644708087972 0.8670454882058967
47.35 -1.5191652608777122 0.853968029926594 -1.4897953253818368 0.8871155047690893
47.400000000000006 -1.5009477972676504 0.8794215021003448 -1.4740966739101304 0.9066572450584286
47.45 -1.4825225746059076 0.9042301034996171 -1.4582601926428544 0.9256755260033508
47.5 -1.463875572063815 0.928398854016844 -1.4422765990166713 0.9441749535471368
47.550000000000004 -1.4449912972819134 0.9519324606083561 -1.426135632354396 0.9621599093162057
47.6 -1.4258526965461749 0.9748352961886042 -1.4098260080675258 0.9796345369246868
47.650000000000006 -1.4064410274370651 0.9971113769958202 -1.3933353483464832 0.9966027275022944
47.7 -1.3867356958818808 1.0187643378399966 -1.3766500906942296 1.0130681040752005
47.75 -1.3667140571380838 1.039797404664083 -1.3597553743721982 1.0290340044464215
47.800000000000004 -1.346351178290749 1.0602133638328113 -1.342634903747547 1.0445034622190943
47.85 -1.3256195581181518 1.0800145275166826 -1.325270786556705 1.0594791855858154
47.900000000000006 -1.3044887984909668 1.099202694463893 -1.3076433441529034 1.0739635334712465
47.95 -1.2829252196845287 1.1177791053502686 -1.2897308898181032 1.0879584885635964
48 -1.2608914099787907 1.1357443917643397 -1.2715094701312402 1.1014656267023721
48.050000000000004 -1.2383456975775513 1.1530985177172834 -1.252952563133405 1.114486082002976
48.1 -1.215241530068033 1.169840712359331 -1.2340307255495346 1.1270205069903148
48.150000000000006 -1.191526743214508 1.1859693923269032 -1.2147111795377576 1.139069026879342
48.2 -1.1671426966550649 1.2014820718270427 -1.1949573272480063 1.150631186974878
48.25 -1.142023248826044 1.2163752581733436 -1.1747281787643198 1.1617058919588361
48.300000000000004 -1.1160935368957352 1.2306443300021888 -1.1539776756331472 1.1722913355808544
48.35 -1.089268519298258 1.2442833947963936 -1.1326538879545425 1.1823849189562128
48.400000000000006 -1.061451228182473 1.2572851215957461 -1.1106980576920318 1.1919831552874165
48.45 -1.0325306661849945 1.2696405438430882 -1.0880434541267223 1.2010815583430285
48.5 -1.0023792657331565 1.2813388261535283 -1.0646139988359418 1.2096745114236742
48.550000000000004 -0.9708498087829881 1.292366987344556 -1.0403226066902669 1.2177551127875659
48.6 -0.9377716795776913 1.3027095702541158 -1.0150691754547263 1.225314992553768
48.650000000000006 -0.9029462916881626 1.312348246615014 -0.9887381387741176 1.2323440948957
48.7 -0.8661414923682432 1.3212613424457689 -0.9611954745002972 1.2388304178090994
48.75 -0.8270847016407502 1.329423265948371 -0.9322850310739229 1.2447597007968176
48.800000000000004 -0.7854544911434866 1.3368038156631985 -0.9018239972773797 1.2501150483414252
48.85 -0.7408702516674383 1.3433673415434595 -0.869597293098246 1.2548764738899434
48.900000000000006 -0.692879546580453 1.3490717256926847 -0.8353505994794564 1.2590203450740034
48.95 -0.6409427188338876 1.353867142991743 -0.7987816703906453 1.262518705821675
49 -0.5844143485637934 1.3576945554100435 -0.7595294810656694 1.2653384446514027
49.050000000000004 -0.522521317736852 1.3604838890225075 -0.7171606636415941 1.2674402705556205
49.1 -0.45433766241148155 1.3621518429077784 -0.671152575194848 1.2687774483631316
49.150000000000006 -0.37875732873615453 1.3625992905866033 -0.6208722579705874 1.2692942344821023
49.2 -0.29446783448395847 1.3617082695022718 -0.5655505432116568 1.2689239423045593
49.25 -0.19993142196803393 1.359338634009254 -0.5042507354399548 1.267586556562604
49.300000000000004 -0.09338676555455672 1.3553246100888123 -0.43583192757219713 1.2651858127275701
49.35 0.027104644688563287 1.3494717967409653 -0.3589084902723705 1.2616056719429947
49.400000000000006 0.16352592363136947 1.3415556988093744 -0.2718104874058048 1.2567061753726325
49.45 0.31762082511474066 1.331323750898693 -0.1725561614029344 1.2503187945347163
49.5 0.49037066100707216 1.3185040404245743 -0.058859573500234394 1.2422416779068217
49.550000000000004 0.6811498054311256 1.302825312224596 0.0717828102422944 1.232235746106568
49.6 0.8865742462509286 1.2840533416602982 0.22185070342059726 1.220023572659516
49.650000000000006 1.0993422026895785 1.2620460830784996 0.39328791454737655 1.205294559439286
49.7 1.307862180435052 1.2368208479314797 0.5865801780221088 1.187721996527819
49.75 1.497828983559506 1.2086105558023836 0.7993479648069053 1.1669993084061008
49.800000000000004 1.656238342381709 1.177872644474541 1.0246701493557322 1.1429015168789367
49.85 1.776129958637295 1.1452248707276191 1.24999488026914 1.115368935266849
49.900000000000006 1.8586038732580654 1.1113256234511069 1.4582324592068878 1.084589720059441
49.95 1.9105399078640994 1.0767580226150686 1.6323138695234278 1.051034226578154
