0 1 0
0.05 1.04 -0.005333333333333335
0.1 1.0785651333333333 -0.011251376111111114
0.15000000000000002 1.1154914872622472 -0.017719728990958545
0.2 1.1502783272757025 -0.02469956173697294
0.25 1.182499923731767 -0.03214484021687606
0.30000000000000004 1.2118266606206864 -0.04000384803905593
0.35000000000000003 1.2380369472294137 -0.0482209637909948
0.4 1.2610193623240715 -0.05673853176622068
0.45 1.2807657087384232 -0.06549866775744974
0.5 1.297356974284855 -0.07444486588811002
0.55 1.310944927039442 -0.08352331361295777
0.6000000000000001 1.3217321516327616 -0.09268386938768998
0.65 1.3299528894977333 -0.10188070120384968
0.7000000000000001 1.3358563171048772 -0.11107261752665215
0.75 1.339693119698758 -0.12022314252267016
0.8 1.341705562131049 -0.12930039560263817
0.8500000000000001 1.342120801112177 -0.13827683405530414
0.9 1.3411469285423354 -0.14712891038084042
0.9500000000000001 1.3389711443614956 -0.15583668597688846
1 1.335759475909762 -0.16438343240145503
1.05 1.3316575395735195 -0.1727552419581061
1.1 1.3267919424074361 -0.18094066150253627
1.1500000000000001 1.3212720229647887 -0.1889303573236584
1.2000000000000002 1.3151917194003044 -0.19671681457386161
1.25 1.3086314243891786 -0.2042940717392447
1.3 1.3016597404575128 -0.21165748874295712
1.35 1.2943350881305205 -0.21880354617648956
1.4000000000000001 1.2867071458593489 -0.22572967261498922
1.4500000000000002 1.2788181179508171 -0.23243409680635835
1.5 1.2707038372656208 -0.2389157215915784
1.55 1.2623947153222401 -0.24517401661730678
1.6 1.253916555197731 -0.2512089271745923
1.6500000000000001 1.245291243377483 -0.25702079679602097
1.7000000000000002 1.2365373362607652 -0.26261030154072607
1.75 1.2276705559102583 -0.26797839417682495
1.8 1.2187042081908257 -0.27312625672588725
1.85 1.2096495348955383 -0.27805526006075815
1.9000000000000001 1.200516009937457 -0.28276692944619497
1.9500000000000002 1.191311588267415 -0.2872629150827794
2 1.182042914896803 -0.29154496686079084
2.0500000000000003 1.1727155002723533 -0.2956149126548849
2.1 1.163333867265328 -0.29947463959527976
2.15 1.1539016741907349 -0.30312607783935047
2.2 1.1444218175498053 -0.3065711864414697
2.25 1.1348965175762038 -0.3098119409807603
2.3000000000000003 1.1253273891486437 -0.3128503226580009
2.35 1.1157155001959955 -0.31568830861585945
2.4000000000000004 1.106061419353154 -0.31832786327228707
2.45 1.0963652543158438 -0.32077093048643274
2.5 1.0866266820806065 -0.32301942640080944
2.5500000000000003 1.076844972034127 -0.32507523282344986
2.6 1.0670190026667588 -0.32694019103010274
2.6500000000000004 1.0571472725225148 -0.3286160958796835
2.7 1.0472279058567544 -0.3301046901466481
2.75 1.0372586533488535 -0.33140765898206676
2.8000000000000003 1.0272368881065033 -0.332526624421218
2.85 1.017159597097562 -0.33346313985972603
2.9000000000000004 1.0070233680516465 -0.33421868442278824
2.95 0.9968243717842025 -0.3347946571530046
3 0.9865583398081408 -0.33519237094179577
3.0500000000000003 0.976220537009891 -0.33541304612741296
3.1 0.9658057290755405 -0.33545780367908984
3.1500000000000004 0.9553081442561941 -0.33532765788191543
3.2 0.9447214289572562 -0.33502350843042655
3.25 0.9340385965212504 -0.3345461318305967
3.3000000000000003 0.9232519684449629 -0.3338961719996544
3.35 0.9123531071256299 -0.333074129940764
3.4000000000000004 0.901332739063534 -0.3320803523547587
3.45 0.8901806672549796 -0.330915019033458
3.5 0.8788856712845607 -0.329578128858198
3.5500000000000003 0.8674353933622108 -0.32806948420250165
3.6 0.8558162082406726 -0.32638867350866857
3.6500000000000004 0.8440130745830304 -0.3245350517736716
3.7 0.8320093649160238 -0.32250771863914635
3.75 0.8197866707887183 -0.32030549373228184
3.8000000000000003 0.8073245791403079 -0.31792688884764686
3.85 0.7946004151441184 -0.31537007649269944
3.9000000000000004 0.7815889459112915 -0.31263285423982906
3.95 0.7682620383754222 -0.30971260423273456
4 0.7545882633997886 -0.30660624708163936
4.05 0.7405324366043805 -0.303310189246521
4.1000000000000005 0.7260550845429716 -0.2998202628455749
4.15 0.7111118226008983 -0.296131656631945
4.2 0.6956526282473907 -0.2922388366485087
4.25 0.6796209899609483 -0.28813545478992914
4.3 0.6629529081326678 -0.2838142431632671
4.3500000000000005 0.6455757194018452 -0.2792668917311505
4.4 0.6274067100345538 -0.27448390623050484
4.45 0.6083514769523328 -0.26945444276831854
4.5 0.5883019866918581 -0.26416611478450985
4.55 0.5671342727992581 -0.25860476721914927
4.6000000000000005 0.54470570089784 -0.25275421170447127
4.65 0.5208517180731078 -0.24659591539997988
4.7 0.49538198982707377 -0.240108634686258
4.75 0.4680758148852707 -0.23326798332938387
4.800000000000001 0.43867669803321757 -0.22604592295320092
4.8500000000000005 0.406885958464421 -0.21841016179897801
4.9 0.37235526398564667 -0.21032344600378047
4.95 0.3346780240260326 -0.20174272636619422
5 0.29337967087549827 -0.19261818348129991
5.050000000000001 0.24790704922123635 -0.1828920964341366
5.1000000000000005 0.19761748465729545 -0.172497547028383
5.15 0.14176871702286808 -0.16135696627313137
5.2 0.07951192427616102 -0.1493805581937497
5.25 0.009891757819053215 -0.13646468679303675
5.300000000000001 -0.06814004099459389 -0.12249039827716697
5.3500000000000005 -0.15568696984139158 -0.10732239040952514
5.4 -0.2538303283580155 -0.09080895493371176
5.45 -0.3634904435199373 -0.07278372273105968
5.5 -0.4852012033035971 -0.05307042142626595
5.550000000000001 -0.6187774925574102 -0.03149222043973158
5.6000000000000005 -0.762881358310346 -0.00788733905169028
5.65 -0.9145569239939133 0.01786806133259991
5.7 -1.0689127635066358 0.045830766032911294
5.75 -1.21924438790924 0.0759601566371233
5.800000000000001 -1.3578848240246812 0.10809637383670578
5.8500000000000005 -1.4777848741918358 0.14195903018465122
5.9 -1.5742811375091634 0.1771738466396703
5.95 -1.64614436130867 0.21332240954620318
6 -1.6953360989496038 0.24999797741427654
6.050000000000001 -1.725762653948341 0.2868481332171776
6.1000000000000005 -1.7418541942755905 0.32359464073700506
6.15 -1.7475963286545 0.3600331204979293
6.2 -1.7461330398259922 0.39602134672998146
6.25 -1.73975408394193 0.43146428410939636
6.300000000000001 -1.730048469026182 0.466300497312896
6.3500000000000005 -1.7180883167804386 0.5004915532332287
6.4 -1.70458599663579 0.5340144067541773
6.45 -1.6900113110503607 0.5668561746646119
6.5 -1.6746731170290683 0.5990106364745456
6.550000000000001 -1.6587741554936426 0.6304759193373644
6.6000000000000005 -1.6424471993594896 0.6612529722317393
6.65 -1.6257786814091497 0.6913445587850569
6.7 -1.608824098797046 0.720754588903692
6.75 -1.5916180655148962 0.7494876715268486
6.800000000000001 -1.574180890013999 0.7775488119737926
6.8500000000000005 -1.5565228924703196 0.8049432041472939
6.9 -1.538647244435257 0.831676085168408
6.95 -1.520551835408941 0.8577526311809937
7 -1.5022304922933793 0.8831778802709657
7.050000000000001 -1.4836737629788 0.9079566731109319
7.1000000000000005 -1.4648694013613903 0.9320936049716274
7.15 -1.4458026431057323 0.9555929847153983
7.2 -1.4264563300517588 0.9784587976726371
7.25 -1.4068109203467734 1.000694670135166
7.300000000000001 -1.3868444073431856 1.0223038337319599
7.3500000000000005 -1.3665321605909777 1.0432890882789199
7.4 -1.3458466952785093 1.0636527618772753
7.45 -1.324757371184672 1.0833966671133757
7.5 -1.303230017886575 1.1025220522096724
7.550000000000001 -1.281226479115423 1.1210295459056638
7.6000000000000005 -1.2587040653883184 1.1389190947140213
7.65 -1.2356149000509016 1.1561898910006627
7.7 -1.2119051393558675 1.1728402900728594
7.75 -1.1875140418795023 1.1888677141163353
7.800000000000001 -1.162372856112389 1.2042685403855273
7.8500000000000005 -1.1364034870602253 1.2190379704996235
7.9 -1.1095168926762171 1.2331698770026622
7.95 -1.0816111483174713 1.2466566224721678
8 -1.052569101419024 1.2594888453600388
8.05 -1.0222555182636224 1.2716552053606598
8.1 -0.9905135989204612 1.283142079346579
8.15 -0.9571607037148784 1.2939331966931504
8.200000000000001 -0.9219830933367323 1.3040092000077044
8.25 -0.8847294331634102 1.3133471137370534
8.3 -0.8451027490632399 1.3219196986754278
8.35 -0.8027504463437116 1.3296946648448027
8.4 -0.7572519176832616 1.3366337083979833
8.450000000000001 -0.7081031776969571 1.3426913300138068
8.5 -0.6546978912096459 1.3478133828585457
8.55 -0.5963041536016753 1.3519352882566524
8.6 -0.5320365263076821 1.3549798485487121
8.65 -0.4608233101800547 1.3568545832679009
8.700000000000001 -0.38137020212274053 1.3574485251514399
8.75 -0.2921239726435604 1.356628453210931
8.8 -0.19124477578943588 1.354234642473559
8.85 -0.0766050842424313 1.350076430668002
8.9 0.0541501079544225 1.3439283367982704
8.950000000000001 0.20342006426462006 1.3355282601170495
9 0.3732425260893091 1.3245806118853478
9.05 0.5645304758301785 1.310769148207228
9.1 0.7758337615458296 1.2937863138834182
9.15 1.0016976571408305 1.2733861969127986
9.200000000000001 1.2312221910784598 1.2494624661115297
9.25 1.4482574339313277 1.2221356529658156
9.3 1.634929743160716 1.1918082589027013
9.35 1.7781967963028837 1.1591351104429182
9.4 1.8752444579309855 1.124894492792754
9.450000000000001 1.9329986921495774 1.089820074489555
9.5 1.962672024649996 1.0544845784339827
9.55 1.9745829046119996 1.0192736328953191
9.600000000000001 1.9760803138619951 0.9844204568667071
9.65 1.9717226030348962 0.9500559002410319
9.700000000000001 1.9641388140006246 0.9162491519902607
9.75 1.9547931329064265 0.8830343554936886
9.8 1.9444898408992033 0.8504262876943386
9.850000000000001 1.9336697432893508 0.8184291487565363
9.9 1.922575372530654 0.787041386158869
9.950000000000001 1.9113411040478048 0.7562583259834673
10 1.900042011180001 0.726073610575103
10.05 1.888720397535848 0.6964799885554871
10.100000000000001 1.8774002915193446 0.6674697522785265
10.15 1.8660954287413885 0.639034982071625
10.200000000000001 1.8548136885655548 0.6111676836888947
10.25 1.8435595839011651 0.5838598661899327
10.3 1.8323356723619755 0.5571035862598783
10.350000000000001 1.8211433640413905 0.5308909734404339
10.4 1.8099833884601377 0.5052142443978055
10.450000000000001 1.7988560671118576 0.48006571083567884
10.5 1.7877614740494348 0.4554377836919323
10.55 1.7766995313742233 0.43132297514465706
10.600000000000001 1.765670066517874 0.4077138993178825
10.65 1.754672846890309 0.3846032722115387
10.700000000000001 1.743707600996343 0.36198391116748724
10.75 1.7327740313891946 0.3398487340586563
10.8 1.7218718226548242 0.31819075831444815
10.850000000000001 1.711000646343823 0.2970030998514718
10.9 1.7001601640108182 0.27627897195208506
10.950000000000001 1.6893500290691525 0.2560116841170949
11 1.6785698878961053 0.2361946409090836
11.05 1.6678193804583787 0.21682134079673285
11.100000000000001 1.6570981406261827 0.19788537500672737
11.15 1.6464057962816478 0.17938042638744703
11.200000000000001 1.6357419692883464 0.16130026828716298
11.25 1.6251062753642567 0.14363876344850668
11.3 1.6144983238850514 0.12638986292038062
11.350000000000001 1.603917717634732 0.10954760498809797
11.4 1.5933640525142794 0.09310611412229655
11.450000000000001 1.5828369172148669 0.0770595999470226
11.5 1.5723358928594557 0.06140235622728718
11.55 1.561860552614778 0.04612875987634609
11.600000000000001 1.5514104612744697 0.03123326998292758
11.65 1.5409851748132453 0.016710426858623548
11.700000000000001 1.5305842399113734 0.002554851105664344
11.75 1.5202071934482362 -0.011238757294689466
11.8 1.5098535619633686 -0.02467561987288462
11.850000000000001 1.499522861083052 -0.037760880540662074
11.9 1.489214594910239 -0.05049960643918268
11.950000000000001 1.4789282553753151 -0.0628967887653458
12 1.4686633215449243 -0.07495734357591562
12.05 1.4584192588858087 -0.08668611256902681
12.100000000000001 1.4481955184803181 -0.09808786384259319
12.15 1.4379915361899351 -0.10916729262909151
12.200000000000001 1.427806731762825 -0.11992902200613546
12.25 1.4176405078810586 -0.13037760358219336
12.3 1.407492249142763 -0.14051751815673602
12.350000000000001 1.3973613209740163 -0.15035317635402756
12.4 1.387247068464836 -0.15988891922969256
12.450000000000001 1.377148815123085 -0.16912901884910586
12.5 1.3670658615395523 -0.17807767883655612
12.55 1.3569974839568235 -0.18673903489403068
12.600000000000001 1.3469429327338713 -0.19511715528835583
12.65 1.3369014306975193 -0.20321604130530238
12.700000000000001 1.326872171371081 -0.2110396276691306
12.75 1.3168543170695364 -0.21859178292589893
12.8 1.3068469968495635 -0.22587630978869794
12.850000000000001 1.29684930430158 -0.2328969454427904
12.9 1.2868602951696673 -0.23965736180844097
12.950000000000001 1.2768789847838153 -0.24616116575900063
13 1.2669043452873394 -0.25241189929157126
13.05 1.256935302640538 -0.2584130396473104
13.100000000000001 1.246970733379694 -0.2641679993781436
13.15 1.2370094611083002 -0.26968012635632815
13.200000000000001 1.2270502526949363 -0.27495270372295294
13.25 1.2170918141494471 -0.279988949771063
13.3 1.20713278614599 -0.2847920177586555
13.350000000000001 1.1971717391580412 -0.2893649956463051
13.4 1.1872071681665544 -0.29371090575363146
13.450000000000001 1.1772374868980844 -0.2978327043282163
13.5 1.167261021544751 -0.30173328101990016
13.55 1.1572760039123584 -0.3054154582526367
13.600000000000001 1.1472805639367065 -0.3088819904852378
13.65 1.1372727215010345 -0.31213556335139975
13.700000000000001 1.1272503774795022 -0.31517879266834564
13.75 1.1172113039225178 -0.31801422330223145
13.8 1.1071531332893803 -0.32064432787713343
13.850000000000001 1.0970733466219649 -0.3230715053129358
13.9 1.0869692605398074 -0.3252980791757508
13.950000000000001 1.076838012921696 -0.32732629582259953
14 1.0666765471214734 -0.3291583223199327
14.05 1.056481594545839 -0.33079624411313713
14.100000000000001 1.046249655399126 -0.33224206242141874
14.15 1.0359769773738547 -0.33349769132932405
14.200000000000001 1.0256595320357647 -0.33456495454260826
14.25 1.015292988617378 -0.33544558177211004
14.3 1.0048726848941676 -0.3361412047046782
14.350000000000001 0.9943935947711967 -0.33665335251492357
14.4 0.9838502921546031 -0.3369834468655362
14.450000000000001 0.9732369106202299 -0.33713279633699267
14.5 0.9625470983195639 -0.3371025902195364
14.55 0.9517739674791115 -0.33689389159117683
14.600000000000001 0.9409100377512789 -0.3365076295949179
14.65 0.9299471725601274 -0.33594459081626293
14.700000000000001 0.918876507450963 -0.335205409647959
14.75 0.9076883692948438 -0.3342905575126185
14.8 0.8963721850132608 -0.3332003307948776
14.850000000000001 0.8849163782690317 -0.33193483731265344
14.9 0.873308252310253 -0.3304939811312707
14.950000000000001 0.8615338568470207 -0.3288774454940604
15 0.8495778364758336 -0.32708467360766746
15.05 0.8374232577323453 -0.3251148469787506
15.100000000000001 0.8250514113350159 -0.3229668609498192
15.15 0.8124415855626687 -0.3206392970241859
15.200000000000001 0.7995708059664604 -0.3181303915016637
15.25 0.7864135357250607 -0.31543799986557797
15.3 0.7729413298786993 -0.3125595562653105
15.350000000000001 0.759122435383831 -0.3094920273237939
15.4 0.744921327367375 -0.30623185936229774
15.450000000000001 0.7302981700691571 -0.30277491797081946
15.5 0.7152081886720578 -0.2991164186557131
15.55 0.6996009354453954 -0.29525084705993765
15.600000000000001 0.6834194302651571 -0.29117186696705993
15.65 0.6665991515029766 -0.28687221395773627
15.700000000000001 0.649066848352925 -0.2823435721745838
15.75 0.630739139732263 -0.27757643115356423
15.8 0.6115208577792433 -0.2725599190801188
15.850000000000001 0.5913030855120964 -0.26728160810661655
15.9 0.569960828278072 -0.2617272865023177
15.950000000000001 0.5473502471733138 -0.25588069137500236
16 0.523305369816375 -0.24972319448304325
16.05 0.49763418025855116 -0.24323343223257773
16.1 0.47011397666726007 -0.2363868693263721
16.150000000000002 0.44048587523123905 -0.22915528373011865
16.2 0.40844833618738213 -0.22150615873889254
16.25 0.37364960133991587 -0.21340196615958795
16.3 0.33567897652919243 -0.204799323361474
16.35 0.29405699207386266 -0.1956480068973944
16.400000000000002 0.24822467076962107 -0.1858898078171491
16.45 0.19753249440341433 -0.1754572208313298
16.5 0.1412302937676491 -0.1642719747227665
16.55 0.07846035877657387 -0.15224344065384293
16.6 0.008257811782234267 -0.1392670073662201
16.650000000000002 -0.07043498594985916 -0.1252226012026037
16.7 -0.15872921306477716 -0.10997367278882944
16.75 -0.2577094086118677 -0.09336719232976425
16.8 -0.36829025224400325 -0.0752355068389464
16.85 -0.4909845706586959 -0.05540129977104963
16.900000000000002 -0.6255624614959825 -0.03368725908605459
16.95 -0.7706093805069937 -0.00993214062786402
17 -0.9230582987782464 0.015985800046505957
17.05 -1.077883108013266 0.044119233081450035
17.1 -1.2282539761146871 0.07442131245952864
17.150000000000002 -1.3664398618207283 0.1067244554345877
17.2 -1.4854352702091345 0.14074048407841516
17.25 -1.5807310917326496 0.17608908267851797
17.3 -1.6513066048168024 0.21234890528293815
17.35 -1.6993052145406158 0.24911357103944903
17.400000000000002 -1.7287376739726437 0.28603340528044663
17.45 -1.7440608950849956 0.32283397135799324
17.5 -1.7492383596518535 0.3593146774008201
17.55 -1.7473729130522193 0.3953365075369395
17.6 -1.7407126048277792 0.4308069030551031
17.650000000000002 -1.730811837797425 0.46566623613850017
17.7 -1.7187166819999686 0.4998773514729955
17.75 -1.7051208887032363 0.5334180923393731
17.8 -1.6904813214735634 0.5662761890216567
17.85 -1.6750979704741829 0.5984458445733832
17.900000000000002 -1.6591675343213543 0.6299254797617657
17.95 -1.6428186703142311 0.6607162485880453
18 -1.6261350004620543 0.6908210592301832
18.05 -1.6091700936707352 0.7202439247133462
18.1 -1.591957233996804 0.7489895285604539
18.150000000000002 -1.5745158075486219 0.7770629309051117
18.2 -1.556855491647357 0.8044693666861401
18.25 -1.5389790081521535 0.831214104406069
18.3 -1.5208839315939453 0.8573023447976234
18.35 -1.5025638688611285 0.8827391457481274
18.400000000000002 -1.4840092155840876 0.9075293643643041
18.45 -1.4652076224625286 0.9316776100023783
18.5 -1.446144258148027 0.9551882040034774
18.55 -1.426801924774983 0.978065143120736
18.6 -1.4071610620071915 1.0003120644312866
18.650000000000002 -1.3871996618233782 1.021932210040001
18.7 -1.3668931068198154 1.0429283901962056
18.75 -1.3462139380138243 1.0633029436193946
18.8 -1.325131552966235 1.0830576939027345
18.85 -1.303611830809908 1.1021939008566315
18.900000000000002 -1.2816166769836244 1.120712205581348
18.95 -1.259103476754049 1.138612567922813
19 -1.236024442654705 1.1558941947687733
19.05 -1.2123258364951945 1.1725554573778254
19.1 -1.187947041303838 1.1885937955913735
19.150000000000002 -1.1628194521352138 1.204005606342947
19.200000000000003 -1.1368651467124598 1.218786113329539
19.25 -1.109995286905314 1.2329292140177386
19.3 -1.0821081894715252 1.2464272992868886
19.35 -1.0530869885597323 1.2592710399150044
19.400000000000002 -1.0227967922432164 1.271449132729946
19.450000000000003 -0.9910812096577674 1.2829479975007676
19.5 -0.9577580927408259 1.2937514134342318
19.55 -0.9226142954795352 1.3038400813470155
19.6 -0.8853992022377445 1.3131910940565958
19.650000000000002 -0.8458167136366375 1.321777293099537
19.700000000000003 -0.8035153030701524 1.3295664843564874
19.75 -0.7580756712454265 1.336520478364919
19.8 -0.7089954378684785 1.342593912943062
19.85 -0.6556702384275932 1.347732806370751
19.900000000000002 -0.5973705836387149 1.351872779440305
19.950000000000003 -0.5332139799477364 1.3549368759773175
20 -0.46213228092530734 1.3568329079366712
20.05 -0.38283538574665454 1.357450261213861
20.1 -0.2937748619656486 1.3566561382769484
20.150000000000002 -0.1931159864601657 1.3542913146437763
20.200000000000003 -0.0787359809681501 1.3501657041422426
20.25 0.05171728713101523 1.3440544577299376
20.3 0.2006449618133 1.3356961064722448
20.35 0.3700963843623752 1.3247955726820428
20.400000000000002 0.5610133039970118 1.3110367802869143
20.450000000000003 0.7720001220425541 1.2941116452679213
20.5 0.9976864559383232 1.2737725762367291
20.55 1.227273118688886 1.2499100420404556
20.6 1.4446828272943484 1.222639971287684
20.650000000000002 1.6320207870032202 1.1923598944888651
20.700000000000003 1.7761021994292365 1.1597210970182248
20.75 1.8739186079157673 1.12550117709172
20.8 1.9322655464208744 1.0904358322723482
20.85 1.9623328269451237 1.055101064197141
20.900000000000002 1.9744813954703462 1.0198855715561974
20.950000000000003 1.9761144418462364 0.9850247969074563
21 1.9718319693074768 0.9506509850460773
21.05 1.9642893885982609 0.9168341342293778
21.1 1.9549661513040786 0.8836088392569692
21.150000000000002 1.9446750220259716 0.8509901244912979
21.200000000000003 1.9338614445049425 0.8189823248256708
21.25 1.9227704785934936 0.7875839609325628
21.3 1.9115378814039716 0.7567903985235412
21.35 1.9002394868111039 0.7265953011855739
21.400000000000002 1.8889180207060108 0.6969914286386933
21.450000000000003 1.8775977482286366 0.6679710786932177
21.5 1.866292539048143 0.6395263339690834
21.55 1.8550103492237853 0.6116492007254265
21.6 1.843755735997564 0.5843316875111922
21.650000000000002 1.832531282875388 0.5575658499222588
21.700000000000003 1.8213384152312007 0.5313438160823643
21.75 1.8101778717000947 0.5056578010552977
21.8 1.7990499792727022 0.4805001148418933
21.85 1.7879548153569644 0.4558631666260949
21.900000000000002 1.7768923041295752 0.4317394668101808
21.950000000000003 1.7658622743263868 0.4081216277378777
22 1.7548644941931428 0.38500236363471596
22.05 1.7438986927839744 0.36237449008027434
22.1 1.7329645730251597 0.34023092320101156
22.150000000000002 1.7220618197668955 0.3185646786978391
22.200000000000003 1.7111901047568108 0.2973688707780815
22.25 1.700349089705309 0.27663671103466647
22.3 1.6895384281565717 0.2563615072991123
22.35 1.6787577666041675 0.23653666248491445
22.400000000000002 1.668006745123235 0.21715567343178735
22.450000000000003 1.6572849976889503 0.19821212975739363
22.5 1.6465921522878662 0.1796997127208041
22.55 1.635927830889437 0.1616121941004231
22.6 1.625291649320401 0.14394343508816226
22.650000000000002 1.6146832170691159 0.12668738520103912
22.700000000000003 1.6041021370370043 0.10983808121099335
22.75 1.5935480052478734 0.09338964609346946
22.8 1.583020410521704 0.07733628799516307
22.85 1.5725189341167785 0.06167229922123529
22.900000000000002 1.5620431493421698 0.04639205524224644
22.950000000000003 1.5515926211413775 0.03149001372103375
23 1.5411669056470114 0.016960713559748833
23.05 1.5307655497057957 0.0027987739672747838
23.1 1.5203880903726796 -0.011001106452743957
23.150000000000002 1.5100340543724613 -0.02444415059300567
23.200000000000003 1.4997029575269993 -0.03753550371250998
23.25 1.4893943041457987 -0.05028023428506092
23.3 1.4791075863774785 -0.06268333482596927
23.35 1.4688422835193558 -0.0747497226965698
23.400000000000002 1.458597861282097 -0.08648424088612552
23.450000000000003 1.4483737710061015 -0.09789165877064389
23.5 1.4381694488259678 -0.10897667284807772
23.55 1.427984314779055 -0.11974390744932699
23.6 1.4178177718538005 -0.13019791542439635
23.650000000000002 1.4076692049730475 -0.14034317880299568
23.700000000000003 1.3975379799072125 -0.15018410942879803
23.75 1.3874234421116511 -0.15972504956648995
23.8 1.3773249154820528 -0.16897027248066154
23.85 1.3672417010211315 -0.17792398298548978
23.900000000000002 1.3571730754092435 -0.18659031796406395
23.950000000000003 1.3471182894708713 -0.19497334685608983
24 1.3370765665281414 -0.20307707211258438
24.05 1.327047100631696 -0.2109054296160377
24.1 1.3170290546582955 -0.21846228906436946
24.150000000000002 1.3070215582634894 -0.22575145431684407
24.200000000000003 1.2970237056765328 -0.23277666369992894
24.25 1.2870345533234422 -0.23954159027088265
24.3 1.2770531172626598 -0.24604984203664254
24.35 1.2670783704161996 -0.25230496212534126
24.400000000000002 1.2571092395773853 -0.25831042890751726
24.450000000000003 1.2471446021743107 -0.2640696560637918
24.5 1.2371832827659524 -0.26958599259546256
24.55 1.2272240492453985 -0.274862722774105
24.6 1.2172656087219027 -0.2799030660258772
24.650000000000002 1.2073066030503827 -0.28471017674578325
24.700000000000003 1.1973456039735189 -0.2892871440366616
24.75 1.1873811078377194 -0.29363699136712235
24.8 1.1774115298398444 -0.2977626761420502
24.85 1.1674351977566548 -0.30166708917861784
24.900000000000002 1.157450345103408 -0.3053530540799995
24.950000000000003 1.1474551036617469 -0.30882332649813454
25 1.1374474953099596 -0.3120805932759488
25.05 1.1274254230806617 -0.3151274714583876
25.1 1.117386661361879 -0.3179665071604308
25.150000000000002 1.1073288451471905 -0.32060017427893106
25.200000000000003 1.0972494582288796 -0.32303087303362266
25.25 1.0871458202146955 -0.32526092832096404
25.3 1.0770150722336207 -0.3272925878625777
25.35 1.066854161178668 -0.3291280201279062
25.400000000000002 1.0566598223148698 -0.3307693120082756
25.450000000000003 1.046428560057861 -0.3322184662168076
25.5 1.036156626702342 -0.33347739838550144
25.55 1.025839998849692 -0.33454793382725856
25.6 1.0154743512494262 -0.33543180392658634
25.650000000000002 1.005055027729325 -0.3361306421181114
25.700000000000003 0.994577008842965 -0.3366459794067743
25.75 0.9840348758100255 -0.33697923937755814
25.8 0.9734227702628426 -0.33713173263570456
25.85 0.9627343492407218 -0.33710465061044936
25.900000000000002 0.9519627347897224 -0.3368990586461928
25.950000000000003 0.941100457427825 -0.33651588829451384
26 0.9301393926210144 -0.3359559287083018
26.05 0.919070689281771 -0.3352198170252337
26.1 0.9078846891440358 -0.33430802761154005
26.150000000000002 0.8965708356834166 -0.33322086001807677
26.200000000000003 0.8851175710328211 -0.3319584254786791
26.25 0.873512219085274 -0.33052063175505486
26.3 0.8617408526694481 -0.32890716610238735
26.35 0.8497881423197512 -0.3271174760945522
26.400000000000002 0.8376371837298828 -0.3251507480064161
26.450000000000003 0.8252693004622714 -0.32300588240188716
26.5 0.8126638178681894 -0.3206814665187894
26.55 0.7997978034332135 -0.3181757429734845
26.6 0.7866457678738357 -0.3154865742273491
26.650000000000002 0.7731793202413808 -0.31261140216115435
26.700000000000003 0.759366768999713 -0.3095472019889481
26.75 0.7451726594855823 -0.30629042960638986
26.8 0.7305572362764193 -0.30283696130497506
26.85 0.715475816708918 -0.2991820245875325
26.900000000000002 0.6998780590270576 -0.29532011858488333
26.950000000000003 0.6837071052875541 -0.29124492229022375
27 0.6668985750925567 -0.2869491884864969
27.05 0.6493793813127453 -0.28242462083055064
27.1 0.6310663330501339 -0.277661731061714
27.150000000000002 0.6118644839988919 -0.27264967270448287
27.200000000000003 0.5916651759283074 -0.2673760469156384
27.25 0.5703437171032266 -0.26182667526346276
27.3 0.5477566240350049 -0.2559853331977727
27.35 0.523738342178368 -0.24983343675256225
27.400000000000002 0.4980973475958722 -0.24334967360254633
27.450000000000003 0.4706115184400002 -0.23650956797024722
27.5 0.44102265483179026 -0.22928496708187993
27.55 0.4090300229744584 -0.2216434349874195
27.6 0.3742828124294546 -0.2135475377886853
27.650000000000002 0.3363714388589303 -0.20495400304191813
27.700000000000003 0.2948177228410725 -0.19581273602176205
27.75 0.24906416974377663 -0.18606567789431855
27.8 0.19846293335658857 -0.17564549777751012
27.85 0.14226567402601584 -0.16447412572076542
27.900000000000002 0.07961658420972141 -0.15246116257591966
27.950000000000003 0.009552586619948428 -0.1395022545750097
28 -0.06898258293416108 -0.1254776085812347
28.05 -0.15709970857394445 -0.11025096674767529
28.1 -0.2558848024370337 -0.09366957793366724
28.150000000000002 -0.3662572027751043 -0.07556601299174938
28.200000000000003 -0.48873934112516976 -0.05576305735766934
28.25 -0.6231178273612425 -0.03408328194506814
28.3 -0.7680029212094275 -0.010364982764756444
28.35 -0.920359912753803 0.015514514424414306
28.400000000000002 -1.075197382427556 0.043609355663322025
28.450000000000003 -1.2257116593507447 0.07387465834903847
28.5 -1.3641750976554112 0.10614502337769877
28.55 -1.4835534725132724 0.140134216273068
28.6 -1.57928210137211 0.17546313628761323
28.650000000000002 -1.6502783174056297 0.21171065676421646
28.700000000000003 -1.6986397619295088 0.2484697154390142
28.75 -1.7283576030117185 0.28538942055761285
28.8 -1.743890821100954 0.3221939885305274
28.85 -1.7492161063628393 0.358681625784385
28.900000000000002 -1.7474520040367814 0.39471237170016693
28.950000000000003 -1.7408603072004327 0.4301929808313913
29 -1.7310058939226332 0.4650633496594426
29.05 -1.7189422513417183 0.4992860026579368
29.1 -1.7053681745520861 0.5328385710383384
29.150000000000002 -1.6907438850000571 0.5657086458796848
29.200000000000003 -1.6753715871030763 0.5978903393362185
29.25 -1.6594494365583132 0.629382013092367
29.3 -1.643107052308919 0.6601847830170232
29.35 -1.6264286952643188 0.690301533006462
29.400000000000002 -1.6094683630039108 0.7197362610272515
29.450000000000003 -1.5922596310081705 0.7484936417472264
29.5 -1.574822086915794 0.7765787306722192
29.55 -1.5571655505348725 0.8039967610426717
29.6 -1.539292847395933 0.8307530017373098
29.650000000000002 -1.5212016302657758 0.856852655376364
29.700000000000003 -1.502885567784945 0.882300782876379
29.75 -1.484335106931188 0.9071022452756423
29.8 -1.4655379435580482 0.9312616566138869
29.85 -1.4464792882757318 0.9547833435793958
29.900000000000002 -1.427141984198485 0.9776713088924555
29.950000000000003 -1.4075065127137172 0.9999291962071133
30 -1.3875509096928291 1.0215602548310596
30.05 -1.3672506050603683 1.0425673028807068
30.1 -1.346578191807519 1.0629526876653963
30.150000000000002 -1.325503125348469 1.0827182421689892
30.200000000000003 -1.3039913498755737 1.1018652364918162
30.25 -1.2820048445771617 1.1203943230437956
30.3 -1.259501078866733 1.1383054741457317
30.35 -1.2364323618251425 1.1555979104999428
30.400000000000002 -1.2127450665932136 1.1722700187280028
30.450000000000003 -1.188378705179033 1.188319255832368
30.5 -1.1632648227355382 1.2037420380048311
30.55 -1.1373256724328642 1.2185336106571865
30.6 -1.1104726221208014 1.2326878958603642
30.650000000000002 -1.0826042314547546 1.2461973125112402
30.700000000000003 -1.0536039222951143 1.2590525634542515
30.75 -1.0233371450456037 1.2712423824073222
30.8 -0.9916479180068173 1.282753231801169
30.85 -0.9583545843786135 1.2935689404401565
30.900000000000002 -0.9232445906189494 1.3036702671098175
30.950000000000003 -0.8860680387223511 1.3130343727428235
31 -0.8465297021001075 1.3216341793383501
31.05 -0.8042791195589599 1.3294375883210854
31.1 -0.7588982963209285 1.3364065242511596
31.150000000000002 -0.7098864526808453 1.3424957616622055
31.200000000000003 -0.6566411891518897 1.3476514834447628
31.25 -0.5984354249073095 1.351809509258542
31.3 -0.534389603323219 1.3548931236969952
31.35 -0.463439121775395 1.3568104302874808
31.400000000000002 -0.38429807304405345 1.3574511670993374
31.450000000000003 -0.2954228157956847 1.356682958964089
31.5 -0.19498375167568288 1.3543470807784836
31.55 -0.08086287113821654 1.3502540215526786
31.6 0.04928903012731524 1.344179563915102
31.650000000000002 0.19787485776613734 1.3358628719134678
31.700000000000003 0.3669553308736404 1.325009382907816
31.75 0.5575006040862797 1.31130319745411
31.8 0.768169147571051 1.2944357184507473
31.85 0.9936744875034673 1.2741576983109941
31.900000000000002 1.2233182726314564 1.250356431990748
31.950000000000003 1.4410969615409108 1.2231432613986872
32 1.629096708754803 1.1929107354499056
32.050000000000004 1.7739919866716471 1.1603065557618608
32.1 1.8725797743132286 1.126107578981273
32.15 1.9315232871210197 1.091051495605293
32.2 1.9619879379261274 1.0557175801829721
32.25 1.974376574409561 1.0204976150896856
32.300000000000004 1.9761467134083641 0.9856292835075685
32.35 1.9719403128613469 0.9512462384578807
32.4 1.9644394036460806 0.9174192960173241
32.45 1.9551388646055148 0.8841835073827562
32.5 1.9448600377413778 0.8515541471144952
32.550000000000004 1.934053057354003 0.8195356863584805
32.6 1.922965539103843 0.7881267198129989
32.65 1.9117346372066377 0.7573226532745347
32.7 1.9004369544607762 0.727117171823215
32.75 1.8891156436337042 0.6975030464167852
32.800000000000004 1.8777952091383479 0.6684725804000606
32.85 1.8664896561164654 0.6400178587296145
32.9 1.855207018119232 0.6121308881946941
32.95 1.843951897174097 0.5848036768479337
33 1.8327269029391662 0.5580282792041571
33.050000000000004 1.8215334762197652 0.5317968219738106
33.1 1.8103723648537038 0.5061015186208819
33.15 1.7992439013808512 0.480934677444763
33.2 1.7881481665953889 0.4562887058761575
33.25 1.7770850867681272 0.4321561125418001
33.300000000000004 1.766054491950523 0.40852950800512833
33.35 1.7550561512311202 0.3854016047171333
33.4 1.7440897942176667 0.36276521649487925
33.45 1.733155124212164 0.3406132577180685
33.5 1.7222518263307005 0.3189387423588029
33.550000000000004 1.7113795725189695 0.29773478291478533
33.6 1.7005380246437836 0.27699458928916715
33.65 1.6897268363805449 0.25671146764382763
33.7 1.6789456543393333 0.23687881924282503
33.75 1.6681941187038407 0.21749013929655753
33.800000000000004 1.6574718635542567 0.19853901581332034
33.85 1.646778516981557 0.18001912846253385
33.9 1.6361137010610467 0.16192424745239925
33.95 1.625477031728169 0.14424823242377705
34 1.614868118583894 0.12698503136147404
34.050000000000004 1.6042865646469804 0.11012867952373638
34.1 1.5937319660639624 0.0936732983905009
34.15 1.5832039117835217 0.07761309463080424
34.2 1.5727019831991444 0.06194235908965515
34.25 1.5622257537621185 0.04665546579462211
34.300000000000004 1.5517747885656712 0.031746870982361126
34.35 1.541348643900164 0.017211112145299495
34.4 1.5309468667786224 0.0030428070986953312
34.45 1.5205689944313998 -0.01076334693169445
34.5 1.5102145537683829 -0.02421257420108465
34.550000000000004 1.4998830608068217 -0.03731002131599198
34.6 1.4895740200625762 -0.05006075808311544
34.65 1.4792869239022899 -0.062469778336422296
34.7 1.4690212518537284 -0.074542000742056
34.75 1.4587764698712438 -0.08628226958063903
34.800000000000004 1.448552029553031 -0.09769535550649645
34.85 1.4383473673065323 -0.10878595628327366
34.9 1.4281619034580124 -0.11955869749536598
34.95 1.4179950413019649 -0.13001813323451558
35 1.4078461660856174 -0.14016874676086458
35.050000000000004 1.397714643923372 -0.15001495113767993
35.1 1.3875998206355438 -0.1595610898388864
35.15 1.377501020505242 -0.16881143732845688
35.2 1.3674175449466708 -0.1777701996106148
35.25 1.3573486710774902 -0.18644151474970003
35.300000000000004 1.3472936501871915 -0.19482945335843632
35.35 1.3372517060926654 -0.2029380190532148
35.4 1.3272220333713036 -0.21077114887487236
35.45 1.3172037954610238 -0.21833271367329535
35.5 1.3071961226155757 -0.22562651845401524
35.550000000000004 1.2971981097023277 -0.23265630268478438
35.6 1.287208813828452 -0.239425740559922
35.65 1.2772272517799994 -0.24593844122000413
35.7 1.2672523972567722 -0.25219794892423125
35.75 1.2572831778841336 -0.25820774317254325
35.800000000000004 1.2473184719809225 -0.26397123877426054
35.85 1.237357105060443 -0.26949178585970596
35.9 1.227397846039039 -0.2747726698309065
35.95 1.2174394031240117 -0.27981711124707676
36 1.2074804193495607 -0.28462826564014826
36.050000000000004 1.1975194677259624 -0.28920922325511944
36.1 1.1875550459633282 -0.29356300870946
36.15 1.1775855707269147 -0.2976925805651985
36.2 1.167609371376043 -0.30160083080664907
36.25 1.1576246831331483 -0.30529058421598226
36.300000000000004 1.1476296396232308 -0.3087645976380039
36.35 1.1376222647169063 -0.3120255591245684
36.4 1.1276004636022643 -0.3150760869479991
36.45 1.1175620130016763 -0.31791872847170766
36.5 1.1075045504394088 -0.3205559588648791
36.550000000000004 1.0974255624542015 -0.322990179646597
36.6 1.087322371637668 -0.32522371704310254
36.65 1.0771921223641903 -0.3272588201399875
36.7 1.0670317650606587 -0.32909765880897857
36.75 1.0568380388445906 -0.3307423213865497
36.800000000000004 1.0466074523364501 -0.3321948120788552
36.85 1.0363362624259462 -0.33345704806436177
36.9 1.0260204507421378 -0.33453085626201884
36.95 1.0156556975426891 -0.3354179697287788
37 1.0052373526978458 -0.33612002364568305
37.050000000000004 0.9947604033987264 -0.33663855084648353
37.1 0.984219438166307 -0.33697497683676453
37.15 0.9736086066757251 -0.33713061424464774
37.2 0.9629215748387733 -0.33710665663625916
37.25 0.9521514745038667 -0.3369041716200448
37.300000000000004 0.9412908470352381 -0.33652409315354054
37.35 0.9303315799190477 -0.335967212954096
37.4 0.9192648354104279 -0.33523417090104574
37.45 0.9080809700785019 -0.33432544430057465
37.5 0.8967694439216435 -0.3332413358656511
37.550000000000004 0.8853187175073012 -0.3319819602414184
37.6 0.8737161353330359 -0.330547228880786
37.65 0.8619477933001113 -0.32893683304495713
37.7 0.8499983878283782 -0.3271502246684629
37.75 0.8378510437095964 -0.32518659478695305
37.800000000000004 0.8254871172814262 -0.323044849177336
37.85 0.8128859708886504 -0.32072358080242963
37.9 0.8000247138603993 -0.3182210385843383
37.95 0.7868779043461456 -0.31553509195019713
38 0.7734172052870525 -0.3126631904981531
38.050000000000004 0.7596109865138084 -0.30960231801736027
38.1 0.7454238634095955 -0.3063489399595388
38.15 0.7308161606990604 -0.3028989432966488
38.2 0.7157432876503129 -0.2992475675038001
38.25 0.7001550082215537 -0.29538932517178074
38.300000000000004 0.6839945863444787 -0.29131791047117417
38.35 0.667197782491937 -0.28702609334985063
38.400000000000006 0.6496916727867805 -0.28250559693549054
38.45 0.6313932560140104 -0.2777469551202512
38.5 0.6122078068293411 -0.2727393467086822
38.550000000000004 0.5920269250478501 -0.26747040179293
38.6 0.5707262210140434 -0.261925975159311
38.650000000000006 0.5481625656582019 -0.2560898805044823
38.7 0.5241708210867428 -0.24994357802595663
38.75 0.49855995396688707 -0.2434658065348228
38.800000000000004 0.471108420770311 -0.2366321496173099
38.85 0.4415587035870098 -0.22941452357593872
38.900000000000006 0.4096108722911405 -0.2217805729983283
38.95 0.374915061552001 -0.2136929580256507
39 0.3370627938571416 -0.20510851610189768
39.050000000000004 0.2955771767653722 -0.1959772808759789
39.1 0.2499021948261674 -0.18624134323180713
39.150000000000006 0.19939167068733382 -0.17583354624698985
39.2 0.1432990920269429 -0.16467602075114304
39.25 0.08077055374053906 -0.15267859678621884
39.300000000000004 0.01084478292324248 -0.1397371776145935
39.35 -0.06753309869936738 -0.1257322502943608
39.400000000000006 -0.155473457138199 -0.11052784847594602
39.45 -0.2540637350801861 -0.09397150019476103
39.5 -0.3642278598417407 -0.07589600159105464
39.550000000000004 -0.48649776453275045 -0.056124242951240744
39.6 -0.6206764354012301 -0.03447868296696939
39.650000000000006 -0.7653987887926251 -0.010797164936520522
39.7 -0.917662330864163 0.015043906067653233
39.75 -1.072510366396218 0.04310014243133186
39.800000000000004 -1.2231656554881454 0.07332861808660858
39.85 -1.3619044553171842 0.10556611726314485
39.900000000000006 -1.4816643784614039 0.13952835759143714
39.95 -1.5778254939459184 0.17483746926259314
40 -1.649243087838219 0.21107256253262302
40.050000000000004 -1.6979686211428202 0.24782590678972807
40.1 -1.7279732261993708 0.2847453988539983
40.150000000000006 -1.7437176611428626 0.32155390759933195
40.2 -1.749191716086678 0.3580484338348641
40.25 -1.7475296424141236 0.3940880674793357
40.300000000000004 -1.7410070287088417 0.4295788721839713
40.35 -1.7311992860408612 0.46446026553130965
40.400000000000006 -1.7191673665844738 0.4986944495092364
40.45 -1.7056151444594478 0.5322588417097147
40.5 -1.6910062232855936 0.5651408929732022
40.550000000000004 -1.6756450379624994 0.5973346238726214
40.6 -1.6597312119296295 0.628838336560833
40.650000000000006 -1.6433953327275144 0.6596531084784225
40.7 -1.6267223046928165 0.6897817990436677
40.75 -1.6097665570300084 0.7192283910331869
40.800000000000004 -1.5925619585736783 0.7479975501708256
40.85 -1.575128299759159 0.7760943272735702
40.900000000000006 -1.5574755437139776 0.8035239538407212
40.95 -1.539606620186928 0.8302916990965064
41 -1.5215192605375845 0.8564027675259114
41.050000000000004 -1.5032071953875383 0.8818622230571376
41.1 -1.48466092320305 0.9066749306457922
41.150000000000006 -1.465868185071079 0.9308455090029017
41.2 -1.4468142335954288 0.9543782901528074
41.25 -1.4274819528713938 0.9772772827723006
41.300000000000004 -1.4078518659841595 0.9995461370816329
41.35 -1.3879020526487902 1.0211881095801216
41.400000000000006 -1.3676079900477378 1.0422060262392279
41.45 -1.3469423230545696 1.0626022429449153
41.5 -1.325874564823211 1.0823786020569797
41.550000000000004 -1.3043707244675804 1.1015363839490182
41.6 -1.282392854760007 1.120076252321639
41.650000000000006 -1.2598985090631722 1.1379981919487816
41.7 -1.236840092769657 1.1553014373222747
41.75 -1.2131640900705005 1.1719843903976368
41.800000000000004 -1.1888101416177683 1.1880445253045888
41.85 -1.1637099422603936 1.203478277453699
41.900000000000006 -1.1377859201317733 1.2182809139252155
41.95 -1.1109496484780477 1.2324463813397841
42 -1.0830999291452061 1.245967126547157
42.050000000000004 -1.0541204708454424 1.2588338843813391
42.1 -1.0238770652628313 1.2710354253585696
42.150000000000006 -0.9922141385754356 1.2825582544612195
42.2 -0.9589505236614217 1.2933862499587827
42.25 -0.9238742574936188 1.303500228445436
42.300000000000004 -0.886736157275263 1.3128774187744807
42.35 -0.8472418662026229 1.3214908231705011
42.400000000000006 -0.8050419847636 1.3293084383120362
42.45 -0.7597198180662122 1.3362923024258722
42.5 -0.7107761812743815 1.3423973263235376
42.550000000000004 -0.6576106329162232 1.3475698569685057
42.6 -0.599498492160165 1.3517459122283229
42.650000000000006 -0.5355631293692327 1.3548490166601328
42.7 -0.46474347459965937 1.35678756439473
42.75 -0.38575780294287554 1.357451644532322
42.800000000000004 -0.2970672551603738 1.3567093029708626
42.85 -0.19684735609338028 1.3544023126179896
42.900000000000006 -0.08298488084301654 1.3503417364359889
42.95 0.046866395009306935 1.3443039880730312
43 0.19511102173451805 1.336028865322082
43.050000000000004 0.36382087187488177 1.3252223241884544
43.1 0.5539941332283216 1.3115686503790631
43.150000000000006 0.7643428341802428 1.2947587494769317
43.2 0.9896639261763874 1.2745417415395746
43.25 1.2193598745435748 1.2508017753466818
43.300000000000004 1.4375019074401656 1.223645625046461
43.35 1.6261592217531173 1.1934608506347604
43.400000000000006 1.7718673991541531 1.160891529977412
43.45 1.8712287545944462 1.1267137241940044
43.5 1.9307723863540514 1.0916670792944279
43.550000000000004 1.9616376262151525 1.0563341348251067
43.6 1.9742685925862626 1.0211097683174828
43.650000000000006 1.9761772138145426 0.9862339194535115
43.7 1.9720476821625523 0.9518416621108983
43.75 1.96458888695494 0.9180046383308825
43.800000000000004 1.955311288932642 0.8847583604685656
43.85 1.945044897489842 0.8521183559403482
43.900000000000006 1.9342445874282514 0.8200892336010172
43.95 1.9231605574078214 0.7886696629684392
44 1.911931373479561 0.757855090357701
44.050000000000004 1.9006344153660661 0.7276392225804796
44.1 1.889313267083154 0.6980148419643
44.150000000000006 1.8779926747256566 0.6689742574622501
44.2 1.866686780247527 0.6405095564090819
44.25 1.8554036954440831 0.6126127461477036
44.300000000000004 1.8441480675548154 0.5852758342478466
44.35 1.832922532634358 0.558490874150917
44.400000000000006 1.8217285470607352 0.532249991158389
44.45 1.810566867957003 0.506545397136845
44.5 1.7994378334609193 0.481369398685505
44.550000000000004 1.7883415277818488 0.4567144014824395
44.6 1.7772778793020891 0.4325729123790518
44.650000000000006 1.7662467193992135 0.4089375401584679
44.7 1.755247818010975 0.38580099549697583
44.75 1.7442809053026718 0.36315609044887787
44.800000000000004 1.7333456849544542 0.3409957376468228
44.85 1.7224418423497998 0.3193129493337767
44.900000000000006 1.7115690496333913 0.2981008362974792
44.95 1.7007269688290139 0.2773526067509554
45 1.6899152537436268 0.25706156518609324
45.050000000000004 1.6791335511040113 0.2372211112171614
45.1 1.668381501202508 0.21782473842489206
45.150000000000006 1.6576587382243537 0.19886603320786667
45.2 1.646964890364938 0.18033867364551334
45.25 1.6362995798053777 0.16223642837549315
45.300000000000004 1.6256624225897616 0.14455315548728392
45.35 1.6150530284315963 0.12728280143315568
45.400000000000006 1.6044710004668876 0.11041939995734065
45.45 1.5939159349647984 0.09395707104395354
45.5 1.583387421002602 0.07789001988406341
45.550000000000004 1.57288504010887 0.062212535862224076
45.6 1.562408365876979 0.0469189915627157
45.650000000000006 1.5519569635497488 0.0320038417957227
45.7 1.5415303895751475 0.017461622643663924
45.75 1.5311281911323489 0.003286950527894607
45.800000000000004 1.520749905626946 -0.01052547870398738
45.85 1.5103950601537397 -0.023980890669978425
45.900000000000006 1.5000631709251868 -0.037084433324370884
45.95 1.4897537426633054 -0.04984117780701064
46 1.4794662679525523 -0.06225611927076659
46.050000000000004 1.4692002265509183 -0.07433417768682915
46.1 1.4589550846562032 -0.08608019862741158
46.150000000000006 1.4487302941241431 -0.09749895402538052
46.2 1.4385252916347537 -0.1085951429102907
46.25 1.4283394978029147 -0.1193733921202419
46.300000000000004 1.418172316228867 -0.12983825698891516
46.35 1.4080231324838932 -0.1399942220070782
46.400000000000006 1.3978913130260266 -0.14984570145777693
46.45 1.387776204040163 -0.15939704002435082
46.5 1.3776771301964268 -0.1686525133703231
46.550000000000004 1.3675933933200772 -0.17761632869012212
46.6 1.3575242709656123 -0.186292625229487
46.650000000000006 1.3474690148870307 -0.1946854747742982
46.7 1.3374268493954502 -0.2027988821064492
46.75 1.3273969695944334 -0.2106367854252409
46.800000000000004 1.3173785394824329 -0.2182030567326319
46.85 1.307370689910728 -0.2255015021805142
46.900000000000006 1.2973725163840786 -0.23253586237800564
46.95 1.287383076690032 -0.23930981265655307
47 1.2774013883414062 -0.24582696329042386
47.050000000000004 1.2674264258148824 -0.2520908596699234
47.1 1.2574571175668796 -0.25810498242441426
47.150000000000006 1.2474923428059166 -0.2638727474919195
47.2 1.237530927998471 -0.26939750613177227
47.25 1.2275716430828902 -0.2746825448764162
47.300000000000004 1.2176131973631654 -0.2797310854180665
47.35 1.207654235051301 -0.2845462844255032
47.400000000000006 1.1976933304235635 -0.28913123328578105
47.45 1.1877289825520196 -0.29348895776509926
47.5 1.1777596095684166 -0.2976224175824713
47.550000000000004 1.167783542412556 -0.301534505889163
47.6 1.1577990180117816 -0.30522804864611724
47.650000000000006 1.1478041718319678 -0.3087058038907462
47.7 1.1377970297333404 -0.31197046088353275
47.75 1.1277754990564859 -0.3150246391238344
47.800000000000004 1.1177373588548558 -0.3178708872231036
47.85 1.1076802491798163 -0.3205116816224148
47.900000000000006 1.0976016593126203 -0.3229494251397008
47.95 1.0874989148244028 -0.32518644533042357
48 1.0773691633301579 -0.3272249926435131
48.050000000000004 1.0672093587853717 -0.32906723835227386
48.1 1.0570162441542077 -0.3307152722375381
48.150000000000006 1.0467863322554984 -0.3321710999976111
48.2 1.0365158845668019 -0.33343664035644344
48.25 1.0262008877369126 -0.33451372183793654
48.300000000000004 1.0158370275228161 -0.33540407917026643
48.35 1.0054196598273983 -0.3361093492795288
48.400000000000006 0.9949437784683715 -0.33663106682677135
48.45 0.9844039792557852 -0.3369706592364913
48.5 0.9737944198939146 -0.3371294411578085
48.550000000000004 0.9631087751517381 -0.33710860829164124
48.6 0.9523401866628644 -0.3369092305081407
48.650000000000006 0.9414812066184954 -0.3365322441681862
48.7 0.9305237345032638 -0.3359784435506681
48.75 0.9194589458904836 -0.3352484712733124
48.800000000000004 0.9082772121568186 -0.3343428075786019
48.85 0.8969680097921264 -0.33326175833751825
48.900000000000006 0.8855198177629249 -0.3320054416019123
48.95 0.8739200011310104 -0.3305737725107241
49 0.8621546788243558 -0.32896644632535654
49.050000000000004 0.8502085730959111 -0.32718291933443483
49.1 0.8380648377756511 -0.325222387326983
49.150000000000006 0.8257048619078967 -0.3230837612845291
49.2 0.8131080447521937 -0.32076563988538837
49.25 0.8002515373905845 -0.31826627834662624
49.300000000000004 0.7871099453009447 -0.3155835530488709
49.35 0.7736549851933288 -0.31271492129366407
49.400000000000006 0.7598550881250298 -0.3096573754292945
49.45 0.7456749393626954 -0.3064073904452574
49.5 0.7310749435883099 -0.30296086397299465
49.550000000000004 0.7160106017796095 -0.29931304743576354
49.6 0.7004317833492988 -0.29545846685649335
49.650000000000006 0.6842818737991654 -0.29139083155099454
49.7 0.667496774113971 -0.2871029285948014
49.75 0.6500037232455335 -0.2825865005431433
49.800000000000004 0.6317199091615467 -0.277832103390602
49.85 0.6125508268866623 -0.2728289411629399
49.900000000000006 0.5923883335785908 -0.2675646728188129
49.95 0.5711083408260832 -0.26202518628181004
