0 1 0
0.05 1.1 -0.005833333333333335
0.1 1.1971583333333333 -0.013233090277777783
0.15000000000000002 1.2884247226348329 -0.022104715975660653
0.2 1.3707846441711151 -0.03230524582403761
0.25 1.4420199871553332 -0.04365000593238329
0.30000000000000004 1.5010110858259047 -0.05592896123697788
0.35000000000000003 1.547773297989188 -0.06892566929413123
0.4 1.58324297419228 -0.08243450312937076
0.45 1.6089260114002573 -0.09627293177813923
0.5 1.6265446945860804 -0.11028776435008901
0.55 1.6377725841233821 -0.12435615732322408
0.6000000000000001 1.6440824656741884 -0.13838313096072447
0.65 1.6466883235201226 -0.15229736747539546
0.7000000000000001 1.6465473850264276 -0.16604659834248145
0.75 1.6443920445091393 -0.17959333609895076
0.8 1.6407715202988624 -0.19291127629837698
0.8500000000000001 1.6360923485098862 -0.20598243216965184
0.9 1.6306530740565282 -0.21879493417275195
0.9500000000000001 1.6246719971592514 -0.2313413793449367
1 1.6183084729395314 -0.24361761148767855
1.05 1.6116788506859008 -0.2556218280313378
1.1 1.6048682136229588 -0.2673539295349688
1.1500000000000001 1.597938942267403 -0.2788150471027012
1.2000000000000002 1.5909369264404731 -0.29000719926635965
1.25 1.5838960596111715 -0.300933042689574
1.3 1.5768414883460162 -0.3115956907469822
1.35 1.5697919634027275 -0.32199858120770736
1.4000000000000001 1.5627615437506905 -0.3321453794858997
1.4500000000000002 1.5557608345883516 -0.34203990770566006
1.5 1.548797889408759 -0.35168609255116484
1.55 1.5418788694103789 -0.3610879268283383
1.6 1.5350085272015515 -0.37024944106785124
1.6500000000000001 1.528190562902045 -0.3791746825072217
1.7000000000000002 1.5214278872750566 -0.38786769951496997
1.75 1.514722816888605 -0.3963325300426971
1.8 1.508077219403786 -0.4045731930690546
1.85 1.5014926221329734 -0.4125936822738048
1.9000000000000001 1.4949702934451476 -0.4203979613797211
1.9500000000000002 1.4885113040214655 -0.42798996074578416
2 1.4821165731002468 -0.435373574901901
2.0500000000000003 1.475786903496328 -0.4425526607938929
2.1 1.469523008192491 -0.4495310365654552
2.15 1.4633255305784516 -0.45631248074672254
2.2 1.4571950598826777 -0.4629007317509948
2.25 1.4511321429516766 -0.46929948760499657
2.3000000000000003 1.4451372932425868 -0.47551240585588106
2.35 1.4392109976806196 -0.48154310361159414
2.4000000000000004 1.433353721873358 -0.4873951576813259
2.45 1.4275659140547192 -0.49307210479042923
2.5 1.4218480080420237 -0.49857744184999686
2.5500000000000003 1.4162004254224074 -0.5039146262657179
2.6 1.4106235771340803 -0.5090870762740216
2.6500000000000004 1.4051178645695395 -0.5140981712961155
2.7 1.3996836802986823 -0.5189512523025259
2.75 1.39432140848755 -0.5236496221822965
2.8000000000000003 1.389031425071472 -0.5281965461121961
2.85 1.3838140977283893 -0.5325952519222258
2.9000000000000004 1.3786697856881585 -0.5368489304544389
2.95 1.3735988394059768 -0.5409607359126665
3 1.3686016001221506 -0.5449337862011858
3.0500000000000003 1.3636783993258803 -0.5487711632507359
3.1 1.358829558137217 -0.5524759133305633
3.1500000000000004 1.3540553866186311 -0.5560510473454178
3.2 1.3493561830255554 -0.559499541116602
3.25 1.3447322330036529 -0.5628243356463365
3.3000000000000003 1.3401838087393503 -0.5660283373648268
3.35 1.335711168069244 -0.5691144183595337
3.4000000000000004 1.3313145535533015 -0.5720854165862361
3.45 1.326994191516275 -0.5749441360615664
3.5 1.3227502910613813 -0.5776933470367652
3.5500000000000003 1.318583043060063 -0.5803357861524797
3.6 1.314492619121494 -0.5828741565744858
3.6500000000000004 1.310479170545413 -0.5853111281102842
3.7 1.3065428272618456 -0.5876493373065754
3.75 1.302683696761309 -0.5898913875276808
3.8000000000000003 1.298901863019147 -0.5920398490150345
3.85 1.2951973854177332 -0.5940972589279333
3.9000000000000004 1.2915702976703907 -0.5960661213657902
3.95 1.2880206067509947 -0.5979489073722
4 1.2845482918333613 -0.5997480549211884
4.05 1.2811533032446558 -0.601465968886081
4.1000000000000005 1.2778355614371937 -0.6031050209914932
4.15 1.274594955983136 -0.6046675497490119
4.2 1.2714313445967071 -0.6061558603772046
4.25 1.2683445521886756 -0.6075722247066648
4.3 1.2653343699579376 -0.6089188810708711
4.3500000000000005 1.262400554525126 -0.6101980341837079
4.4 1.2595428271132298 -0.6114118550045686
4.45 1.2567608727802484 -0.6125624805920322
4.5 1.2540543397089183 -0.613652013947175
4.55 1.2514228385585404 -0.6146825238476484
4.6000000000000005 1.2488659418838868 -0.6156560446737245
4.65 1.2463831836260966 -0.6165745762275725
4.7 1.2439740586803554 -0.6174400835471
4.75 1.2416380225450112 -0.6182544967157476
4.800000000000001 1.2393744910565976 -0.6190197106696864
4.8500000000000005 1.2371828402150136 -0.6197375850039216
4.9 1.2350624061028537 -0.6204099437788511
4.95 1.233012484902582 -0.6210385753288745
5 1.231032333014912 -0.6216252320746849
5.050000000000001 1.229121167281375 -0.6221716303409042
5.1000000000000005 1.2272781653136569 -0.6226794501807508
5.15 1.2255024659318263 -0.6231503352094434
5.2 1.2237931697131088 -0.6235858924480522
5.25 1.2221493396523353 -0.6239876921795112
5.300000000000001 1.2205700019346686 -0.6243572678184964
5.3500000000000005 1.2190541468206315 -0.6246961157968564
5.4 1.217600729642883 -0.6250056954662546
5.45 1.216208671913577 -0.6252874290196495
5.5 1.214876862540526 -0.6255427014331864
5.550000000000001 1.2136041591497606 -0.6257728604300253
5.6000000000000005 1.2123893895114521 -0.6259792164675602
5.65 1.2112313530655352 -0.6261630427494079
5.7 1.2101288225427522 -0.6263255752634669
5.75 1.2090805456762357 -0.626468012847244
5.800000000000001 1.2080852469981602 -0.6265915172815522
5.8500000000000005 1.2071416297154383 -0.6266972134135674
5.9 1.2062483776579018 -0.6267861893101166
5.95 1.2054041572919267 -0.6268594964419433
6 1.2046076197920013 -0.6269181498995652
6.050000000000001 1.2038574031623384 -0.626963128641205
6.1000000000000005 1.2031521344002822 -0.6269953757731294
6.15 1.202490431692956 -0.6270157988625911
6.2 1.2018709066383657 -0.6270252702834197
6.25 1.2012921664819902 -0.6270246275941592
6.300000000000001 1.2007528163597807 -0.6270146739484999
6.3500000000000005 1.2002514615384337 -0.6269961785376051
6.4 1.1997867096438268 -0.6269698770637872
6.45 1.1993571728685821 -0.6269364722448394
6.5 1.1989614701498683 -0.6268966343481961
6.550000000000001 1.1985982293087671 -0.6268510017539519
6.6000000000000005 1.1982660891427939 -0.6268001815456468
6.65 1.1979637014634987 -0.6267447501275969
6.7 1.197689733071454 -0.6266852538674387
6.75 1.1974428676613718 -0.6266222097624442
6.800000000000001 1.1972218076505778 -0.6265561061280714
6.8500000000000005 1.197025275924592 -0.6264874033071219
6.9 1.1968520174941242 -0.6264165343978022
6.95 1.1967008010583853 -0.626343905998917
7 1.1965704204702303 -0.6262698989703682
7.050000000000001 1.1964596960992802 -0.6261948692070853
7.1000000000000005 1.1963674760898169 -0.6261191484244811
7.15 1.1962926375109 -0.6260430449535047
7.2 1.196234087396801 -0.6259668445433495
7.25 1.1961907636765035 -0.6258908111698764
7.300000000000001 1.1961616359916503 -0.6258151878478221
7.3500000000000005 1.19614570640294 -0.62574019744488
7.4 1.1961420099855722 -0.625666043495777
7.45 1.196149615314918 -0.6255929110145052
7.5 1.196167624844131 -0.6255209673029167
7.550000000000001 1.1961951751759312 -0.6254503627539487
7.6000000000000005 1.1962314372312615 -0.6253812316478079
7.65 1.1962756163179629 -0.6253136929395153
7.7 1.1963269521030018 -0.6252478510362898
7.75 1.1963847184921435 -0.6251837965633298
7.800000000000001 1.196448223421277 -0.6251216071166411
7.8500000000000005 1.196516808563863 -0.6250613480016469
7.9 1.1965898489592077 -0.6250030729564111
7.95 1.1966667525664432 -0.624946824858401
8 1.196746959749245 -0.6248926364138127
8.05 1.1968299426964115 -0.6248405308285778
8.1 1.1969152047834977 -0.6247905224602737
8.15 1.197002279880722 -0.6247426174502481
8.200000000000001 1.197090731612356 -0.6246968143353736
8.25 1.1971801525727637 -0.6246531046389361
8.3 1.1972701635041905 -0.624611473440255
8.35 1.1973604124412995 -0.6245718999227244
8.4 1.1974505738273324 -0.6245343579000476
8.450000000000001 1.1975403476066249 -0.6244988163205233
8.5 1.1976294582980418 -0.6244652397493193
8.55 1.1977176540537182 -0.6244335888287469
8.6 1.1978047057072918 -0.6244038207166174
8.65 1.197890405815608 -0.624375889502833
8.700000000000001 1.1979745676976603 -0.6243497466044234
8.75 1.198057024474307 -0.6243253411393003
8.8 1.19813762811207 -0.624302620279052
8.85 1.1982162484740995 -0.6242815295811548
8.9 1.1982927723811467 -0.6242620133010146
8.950000000000001 1.1983671026851592 -0.6242440146843
9 1.1984391573578848 -0.6242274762400579
9.05 1.1985088685966405 -0.6242123399951366
9.1 1.1985761819491874 -0.6241985477304682
9.15 1.1986410554594313 -0.6241860411997855
9.200000000000001 1.198703458835469 -0.6241747623313654
9.25 1.1987633726412916 -0.6241646534134119
9.3 1.1988207875132744 -0.6241556572636974
9.35 1.1988757034023905 -0.6241477173840958
9.4 1.1989281288429217 -0.6241407781006422
9.450000000000001 1.1989780802482697 -0.6241347846897601
9.5 1.1990255812343213 -0.6241296834912965
9.55 1.1990706619706768 -0.6241254220090006
9.600000000000001 1.1991133585599143 -0.6241219489990822
9.65 1.1991537124449456 -0.6241192145474753
9.700000000000001 1.199191769844397 -0.6241171701364242
9.75 1.1992275812158506 -0.6241157687010027
9.8 1.199261200746683 -0.6241149646761609
9.850000000000001 1.1992926858721522 -0.6241147140348838
9.9 1.1993220968203093 -0.6241149743180314
9.950000000000001 1.1993494961832358 -0.6241157046564132
10 1.199374948514053 -0.6241168657856355
10.05 1.1993985199490929 -0.6241184200542433
10.100000000000001 1.1994202778545726 -0.6241203314256579
10.15 1.1994402904970771 -0.6241225654743983
10.200000000000001 1.199458626737118 -0.6241250893770509
10.25 1.1994753557450129 -0.6241278718984387
10.3 1.199490546738306 -0.6241308833734163
10.350000000000001 1.1995042687399289 -0.6241340956847047
10.4 1.1995165903562992 -0.6241374822371557
10.450000000000001 1.1995275795745344 -0.6241410179288196
10.5 1.199537303577964 -0.6241446791191706
10.55 1.1995458285791185 -0.6241484435948266
10.600000000000001 1.1995532196693777 -0.6241522905330804
10.65 1.1995595406844644 -0.624156200463543
10.700000000000001 1.1995648540849857 -0.6241601552281819
10.75 1.1995692208512265 -0.6241641379400189
10.8 1.1995727003914176 -0.624168132940738
10.850000000000001 1.1995753504627176 -0.6241721257574349
10.9 1.1995772271041596 -0.6241761030587257
10.950000000000001 1.1995783845808379 -0.6241800526104175
11 1.199578875338623 -0.6241839632309263
11.05 1.1995787499687196 -0.6241878247466173
11.100000000000001 1.1995780571814005 -0.6241916279472266
11.15 1.1995768437882701 -0.62419536454151
11.200000000000001 1.1995751546924374 -0.6241990271132541
11.25 1.1995730328859981 -0.6242026090777706
11.3 1.1995705194542507 -0.624206104638985
11.350000000000001 1.199567653586092 -0.6242095087472197
11.4 1.199564472590064 -0.6242128170577605
11.450000000000001 1.1995610119155473 -0.6242160258902855
11.5 1.199557305178614 -0.6242191321892273
11.55 1.1995533841920833 -0.6242221334851307
11.600000000000001 1.199549278999343 -0.6242250278570567
11.65 1.1995450179115172 -0.624227813896081
11.700000000000001 1.199540627547593 -0.6242304906699221
11.75 1.1995361328771301 -0.6242330576887332
11.8 1.1995315572652046 -0.6242355148720792
11.850000000000001 1.1995269225192557 -0.6242378625171205
11.9 1.1995222489375277 -0.624240101268015
11.950000000000001 1.199517555358812 -0.6242422320865456
12 1.199512859213222 -0.6242442562239787
12.05 1.199508176573744 -0.6242461751941499
12.100000000000001 1.199503522208329 -0.6242479907477728
12.15 1.1994989096323054 -0.6242497048479615
12.200000000000001 1.1994943511609117 -0.6242513196469542
12.25 1.19948985796176 -0.6242528374640226
12.3 1.19948544010706 -0.6242542607645477
12.350000000000001 1.1994811066254436 -0.6242555921402432
12.4 1.1994768655532493 -0.6242568342905007
12.450000000000001 1.1994727239851337 -0.6242579900048343
12.5 1.1994686881238936 -0.6242590621463953
12.55 1.199464763329391 -0.6242600536365304
12.600000000000001 1.1994609541664871 -0.6242609674403533
12.65 1.1994572644519046 -0.6242618065532985
12.700000000000001 1.1994536972999374 -0.6242625739886261
12.75 1.1994502551669524 -0.6242632727658451
12.8 1.199446939894622 -0.624263905900023
12.850000000000001 1.1994437527518447 -0.6242644763919467
12.9 1.199440694475313 -0.6242649872191031
12.950000000000001 1.199437765308701 -0.6242654413274438
13 1.1994349650404441 -0.6242658416239023
13.05 1.1994322930400982 -0.6242661909696281
13.100000000000001 1.1994297482932637 -0.6242664921739054
13.15 1.1994273294350697 -0.6242667479887233
13.200000000000001 1.1994250347822213 -0.6242669611039643
13.25 1.1994228623636107 -0.6242671341431796
13.3 1.1994208099495036 -0.6242672696599187
13.350000000000001 1.1994188750793138 -0.6242673701345836
13.4 1.1994170550879828 -0.6242674379717748
13.450000000000001 1.1994153471309847 -0.6242674754981028
13.5 1.19941374820798 -0.6242674849604332
13.55 1.1994122551851434 -0.6242674685245385
13.600000000000001 1.1994108648161954 -0.6242674282741301
13.65 1.1994095737621684 -0.6242673662102421
13.700000000000001 1.199408378609937 -0.6242672842509439
13.75 1.1994072758895504 -0.624267184231354
13.8 1.1994062620904 -0.6242670679039342
13.850000000000001 1.1994053336762587 -0.6242669369390392
13.9 1.1994044870992298 -0.6242667929257011
13.950000000000001 1.1994037188126454 -0.6242666373726262
14 1.19940302528295 -0.6242664717093865
14.05 1.1994024030006103 -0.624266297287784
14.100000000000001 1.199401848490091 -0.6242661153833716
14.15 1.1994013583189345 -0.6242659271971123
14.200000000000001 1.1994009291059853 -0.6242657338571604
14.25 1.1994005575287972 -0.6242655364207501
14.3 1.1994002403302628 -0.6242653358761744
14.350000000000001 1.1993999743245047 -0.6242651331448433
14.4 1.1993997564020633 -0.6242649290834063
14.450000000000001 1.1993995835344216 -0.6242647244859273
14.5 1.199399452777903 -0.6242645200861019
14.55 1.1993993612769767 -0.6242643165595033
14.600000000000001 1.1993993062670067 -0.6242641145258505
14.65 1.19939928507648 -0.6242639145512866
14.700000000000001 1.1993992951287438 -0.6242637171506603
14.75 1.1993993339432876 -0.624263522789802
14.8 1.1993993991365999 -0.6242633318877872
14.850000000000001 1.1993994884226298 -0.6242631448191808
14.9 1.1993995996128841 -0.6242629619162566
14.950000000000001 1.1993997306161857 -0.6242627834711856
15 1.1993998794381233 -0.6242626097381876
15.05 1.1994000441802164 -0.6242624409356448
15.100000000000001 1.1994002230388223 -0.6242622772481686
15.15 1.199400414303807 -0.6242621188286208
15.200000000000001 1.1994006163570052 -0.6242619658000824
15.25 1.1994008276704895 -0.6242618182577698
15.3 1.1994010468046699 -0.6242616762708947
15.350000000000001 1.199401272406244 -0.6242615398844663
15.4 1.1994015032060155 -0.6242614091210348
15.450000000000001 1.1994017380165998 -0.6242612839823731
15.5 1.1994019757300318 -0.6242611644510987
15.55 1.1994022153152935 -0.6242610504922317
15.600000000000001 1.199402455815774 -0.6242609420546914
15.65 1.199402696346678 -0.6242608390727299
15.700000000000001 1.199402936092393 -0.6242607414673027
15.75 1.1994031743038305 -0.6242606491473773
15.8 1.1994034102957485 -0.6242605620111799
15.850000000000001 1.1994036434440696 -0.6242604799473801
15.9 1.1994038731832009 -0.6242604028362163
15.950000000000001 1.1994040990033668 -0.6242603305505604
16 1.1994043204479616 -0.6242602629569247
16.05 1.1994045371109303 -0.6242601999164111
16.1 1.1994047486341821 -0.6242601412856046
16.150000000000002 1.199404954705046 -0.6242600869174115
16.2 1.1994051550537705 -0.6242600366618455
16.25 1.1994053494510752 -0.6242599903667605
16.3 1.1994055377057569 -0.6242599478785348
16.35 1.1994057196623535 -0.6242599090427057
16.400000000000002 1.1994058951988718 -0.6242598737045577
16.45 1.1994060642245783 -0.6242598417096654
16.5 1.1994062266778585 -0.6242598129043929
16.55 1.1994063825241443 -0.6242597871363514
16.6 1.199406531753914 -0.6242597642548169
16.650000000000002 1.1994066743807617 -0.6242597441111092
16.7 1.1994068104395421 -0.6242597265589348
16.75 1.1994069399845873 -0.6242597114546944
16.8 1.199407063087998 -0.6242596986577574
16.85 1.1994071798380082 -0.6242596880307054
16.900000000000002 1.1994072903374233 -0.6242596794395446
16.95 1.1994073947021315 -0.624259672753891
17 1.1994074930596876 -0.6242596678471286
17.05 1.1994075855479678 -0.6242596645965421
17.1 1.1994076723138953 -0.6242596628834268
17.150000000000002 1.1994077535122354 -0.6242596625931756
17.2 1.1994078293044572 -0.6242596636153454
17.25 1.1994078998576638 -0.6242596658437047
17.3 1.1994079653435854 -0.6242596691762633
17.35 1.1994080259376365 -0.6242596735152842
17.400000000000002 1.1994080818180344 -0.6242596787672815
17.45 1.1994081331649764 -0.6242596848430035
17.5 1.1994081801598768 -0.6242596916574028
17.55 1.199408222984657 -0.6242596991295947
17.6 1.1994082618210913 -0.6242597071828044
17.650000000000002 1.1994082968502038 -0.6242597157443053
17.7 1.199408328251715 -0.6242597247453472
17.75 1.199408356203536 -0.6242597341210778
17.8 1.1994083808813094 -0.6242597438104568
17.85 1.199408402457992 -0.6242597537561632
17.900000000000002 1.1994084211034814 -0.6242597639044982
17.95 1.1994084369842806 -0.6242597742052834
18 1.1994084502632008 -0.6242597846117542
18.05 1.1994084610991005 -0.6242597950804509
18.1 1.1994084696466576 -0.6242598055711067
18.150000000000002 1.1994084760561736 -0.624259816046534
18.2 1.1994084804734089 -0.6242598264725087
18.25 1.199408483039445 -0.624259836817654
18.3 1.1994084838905736 -0.6242598470533235
18.35 1.1994084831582121 -0.6242598571534844
18.400000000000002 1.1994084809688397 -0.6242598670946005
18.45 1.1994084774439573 -0.6242598768555164
18.5 1.199408472700066 -0.6242598864173429
18.55 1.1994084668486655 -0.6242598957633427
18.6 1.199408459996268 -0.6242599048788193
18.650000000000002 1.1994084522444293 -0.6242599137510062
18.7 1.1994084436897927 -0.6242599223689592
18.75 1.1994084344241482 -0.624259930723451
18.8 1.1994084245345014 -0.6242599388068671
18.85 1.1994084141031538 -0.6242599466131064
18.900000000000002 1.1994084032077936 -0.6242599541374821
18.95 1.1994083919215943 -0.6242599613766279
19 1.19940838031332 -0.6242599683284049
19.05 1.199408368447439 -0.6242599749918138
19.1 1.1994083563842421 -0.6242599813669082
19.150000000000002 1.199408344179966 -0.6242599874547123
19.200000000000003 1.1994083318869198 -0.6242599932571415
19.25 1.1994083195536174 -0.6242599987769261
19.3 1.1994083072249087 -0.6242600040175378
19.35 1.1994082949421165 -0.6242600089831207
19.400000000000002 1.1994082827431722 -0.6242600136784241
19.450000000000003 1.1994082706627534 -0.6242600181087391
19.5 1.1994082587324209 -0.6242600222798385
19.55 1.199408246980757 -0.6242600261979192
19.6 1.1994082354335016 -0.6242600298695485
19.650000000000002 1.1994082241136879 -0.6242600333016125
19.700000000000003 1.199408213041776 -0.624260036501268
19.75 1.1994082022357861 -0.6242600394758973
19.8 1.1994081917114279 -0.624260042233065
19.85 1.1994081814822288 -0.6242600447804788
19.900000000000002 1.199408171559659 -0.6242600471259521
19.950000000000003 1.1994081619532535 -0.6242600492773688
20 1.1994081526707323 -0.6242600512426518
20.05 1.1994081437181152 -0.6242600530297329
20.1 1.1994081350998356 -0.6242600546465249
20.150000000000002 1.199408126818849 -0.624260056100897
20.200000000000003 1.1994081188767396 -0.6242600574006512
20.25 1.1994081112738213 -0.6242600585535012
20.3 1.1994081040092368 -0.6242600595670534
20.35 1.1994080970810523 -0.6242600604487896
20.400000000000002 1.199408090486348 -0.624260061206051
20.450000000000003 1.199408084221305 -0.6242600618460252
20.5 1.1994080782812895 -0.6242600623757332
20.55 1.1994080726609309 -0.6242600628020188
20.6 1.199408067354199 -0.6242600631315401
20.650000000000002 1.1994080623544752 -0.6242600633707606
20.700000000000003 1.1994080576546216 -0.6242600635259428
20.75 1.199408053247045 -0.624260063603143
20.8 1.1994080491237589 -0.6242600636082072
20.85 1.199408045276441 -0.6242600635467671
20.900000000000002 1.1994080416964878 -0.6242600634242385
20.950000000000003 1.1994080383750654 -0.6242600632458194
21 1.1994080353031578 -0.6242600630164898
21.05 1.1994080324716112 -0.624260062741012
21.1 1.1994080298711762 -0.624260062423931
21.150000000000002 1.1994080274925465 -0.6242600620695768
21.200000000000003 1.1994080253263943 -0.6242600616820665
21.25 1.1994080233634044 -0.6242600612653065
21.3 1.1994080215943035 -0.6242600608229966
21.35 1.1994080200098893 -0.6242600603586328
21.400000000000002 1.199408018601056 -0.6242600598755121
21.450000000000003 1.199408017358817 -0.624260059376737
21.5 1.1994080162743264 -0.6242600588652195
21.55 1.199408015338897 -0.6242600583436869
21.6 1.199408014544019 -0.6242600578146867
21.650000000000002 1.1994080138813727 -0.6242600572805923
21.700000000000003 1.1994080133428437 -0.6242600567436083
21.75 1.1994080129205331 -0.6242600562057765
21.8 1.1994080126067674 -0.6242600556689817
21.85 1.1994080123941075 -0.6242600551349574
21.900000000000002 1.1994080122753548 -0.6242600546052923
21.950000000000003 1.1994080122435569 -0.6242600540814357
22 1.1994080122920119 -0.6242600535647038
22.05 1.1994080124142712 -0.6242600530562858
22.1 1.199408012604142 -0.6242600525572496
22.150000000000002 1.1994080128556877 -0.6242600520685475
22.200000000000003 1.199408013163228 -0.6242600515910227
22.25 1.1994080135213385 -0.6242600511254144
22.3 1.199408013924848 -0.6242600506723635
22.35 1.199408014368837 -0.6242600502324183
22.400000000000002 1.1994080148486346 -0.62426004980604
22.450000000000003 1.1994080153598146 -0.6242600493936077
22.5 1.199408015898191 -0.6242600489954238
22.55 1.1994080164598138 -0.6242600486117186
22.6 1.1994080170409638 -0.6242600482426556
22.650000000000002 1.1994080176381472 -0.6242600478883359
22.700000000000003 1.1994080182480893 -0.6242600475488029
22.75 1.1994080188677287 -0.6242600472240467
22.8 1.1994080194942112 -0.6242600469140079
22.85 1.1994080201248827 -0.6242600466185824
22.900000000000002 1.199408020757283 -0.6242600463376244
22.950000000000003 1.1994080213891387 -0.6242600460709511
23 1.199408022018356 -0.6242600458183454
23.05 1.1994080226430144 -0.6242600455795596
23.1 1.1994080232613586 -0.6242600453543189
23.150000000000002 1.1994080238717928 -0.624260045142324
23.200000000000003 1.1994080244728726 -0.6242600449432544
23.25 1.1994080250632984 -0.624260044756771
23.3 1.199408025641908 -0.6242600445825186
23.35 1.1994080262076707 -0.6242600444201285
23.400000000000002 1.1994080267596798 -0.6242600442692209
23.450000000000003 1.1994080272971461 -0.6242600441294067
23.5 1.1994080278193913 -0.62426004400029
23.55 1.1994080283258415 -0.6242600438814695
23.6 1.1994080288160214 -0.6242600437725406
23.650000000000002 1.199408029289548 -0.6242600436730972
23.700000000000003 1.1994080297461243 -0.6242600435827325
23.75 1.199408030185534 -0.624260043501041
23.8 1.1994080306076362 -0.6242600434276199
23.85 1.199408031012359 -0.6242600433620696
23.900000000000002 1.1994080313996947 -0.6242600433039955
23.950000000000003 1.1994080317696956 -0.6242600432530084
24 1.199408032122468 -0.6242600432087257
24.05 1.1994080324581688 -0.6242600431707721
24.1 1.1994080327769996 -0.6242600431387804
24.150000000000002 1.1994080330792036 -0.6242600431123917
24.200000000000003 1.1994080333650612 -0.6242600430912565
24.25 1.1994080336348858 -0.6242600430750349
24.3 1.199408033889021 -0.624260043063397
24.35 1.199408034127836 -0.6242600430560231
24.400000000000002 1.199408034351723 -0.6242600430526043
24.450000000000003 1.1994080345610945 -0.6242600430528423
24.5 1.199408034756379 -0.6242600430564501
24.55 1.1994080349380194 -0.6242600430631515
24.6 1.1994080351064702 -0.6242600430726817
24.650000000000002 1.1994080352621947 -0.6242600430847868
24.700000000000003 1.199408035405663 -0.6242600430992243
24.75 1.19940803553735 -0.6242600431157628
24.8 1.1994080356577328 -0.6242600431341817
24.85 1.1994080357672898 -0.6242600431542716
24.900000000000002 1.1994080358664985 -0.6242600431758337
24.950000000000003 1.1994080359558335 -0.6242600431986799
25 1.1994080360357662 -0.6242600432226323
25.05 1.1994080361067625 -0.6242600432475233
25.1 1.1994080361692823 -0.6242600432731952
25.150000000000002 1.199408036223778 -0.6242600432995001
25.200000000000003 1.1994080362706938 -0.6242600433262996
25.25 1.1994080363104644 -0.6242600433534642
25.3 1.1994080363435151 -0.6242600433808735
25.35 1.1994080363702604 -0.6242600434084157
25.400000000000002 1.1994080363911035 -0.6242600434359873
25.450000000000003 1.1994080364064363 -0.6242600434634927
25.5 1.1994080364166384 -0.6242600434908442
25.55 1.1994080364220772 -0.6242600435179613
25.6 1.199408036423107 -0.6242600435447706
25.650000000000002 1.1994080364200699 -0.6242600435712057
25.700000000000003 1.1994080364132946 -0.6242600435972064
25.75 1.1994080364030968 -0.624260043622719
25.8 1.1994080363897788 -0.6242600436476954
25.85 1.1994080363736301 -0.6242600436720931
25.900000000000002 1.1994080363549269 -0.624260043695875
25.950000000000003 1.1994080363339326 -0.6242600437190088
26 1.1994080363108974 -0.624260043741467
26.05 1.199408036286059 -0.6242600437632267
26.1 1.1994080362596429 -0.6242600437842691
26.150000000000002 1.1994080362318615 -0.6242600438045791
26.200000000000003 1.199408036202916 -0.6242600438241455
26.25 1.1994080361729955 -0.6242600438429602
26.3 1.1994080361422772 -0.6242600438610186
26.35 1.1994080361109276 -0.6242600438783189
26.400000000000002 1.1994080360791022 -0.6242600438948618
26.450000000000003 1.1994080360469457 -0.6242600439106508
26.5 1.1994080360145927 -0.6242600439256916
26.55 1.1994080359821682 -0.6242600439399918
26.6 1.1994080359497872 -0.6242600439535612
26.650000000000002 1.1994080359175558 -0.624260043966411
26.700000000000003 1.1994080358855714 -0.6242600439785543
26.75 1.1994080358539227 -0.6242600439900052
26.8 1.1994080358226904 -0.6242600440007793
26.85 1.1994080357919474 -0.6242600440108931
26.900000000000002 1.1994080357617596 -0.6242600440203642
26.950000000000003 1.1994080357321855 -0.6242600440292109
27 1.1994080357032768 -0.624260044037452
27.05 1.1994080356750794 -0.6242600440451074
27.1 1.1994080356476327 -0.6242600440521968
27.150000000000002 1.1994080356209709 -0.6242600440587407
27.200000000000003 1.1994080355951224 -0.6242600440647597
27.25 1.1994080355701113 -0.6242600440702744
27.3 1.1994080355459564 -0.6242600440753058
27.35 1.1994080355226722 -0.6242600440798747
27.400000000000002 1.1994080355002692 -0.6242600440840018
27.450000000000003 1.1994080354787544 -0.6242600440877079
27.5 1.199408035458131 -0.6242600440910132
27.55 1.1994080354383985 -0.6242600440939381
27.6 1.1994080354195542 -0.6242600440965025
27.650000000000002 1.1994080354015924 -0.6242600440987259
27.700000000000003 1.1994080353845042 -0.6242600441006275
27.75 1.1994080353682794 -0.6242600441022261
27.8 1.199408035352905 -0.62426004410354
27.85 1.1994080353383667 -0.624260044104587
27.900000000000002 1.199408035324648 -0.6242600441053845
27.950000000000003 1.199408035311731 -0.6242600441059494
28 1.1994080352995964 -0.6242600441062979
28.05 1.1994080352882244 -0.6242600441064459
28.1 1.1994080352775935 -0.6242600441064085
28.150000000000002 1.1994080352676817 -0.6242600441062003
28.200000000000003 1.1994080352584662 -0.6242600441058355
28.25 1.1994080352499235 -0.6242600441053275
28.3 1.1994080352420298 -0.6242600441046894
28.35 1.1994080352347611 -0.6242600441039333
28.400000000000002 1.199408035228093 -0.6242600441030711
28.450000000000003 1.199408035222001 -0.6242600441021141
28.5 1.1994080352164604 -0.6242600441010729
28.55 1.1994080352114471 -0.6242600440999576
28.6 1.1994080352069365 -0.6242600440987778
28.650000000000002 1.1994080352029046 -0.6242600440975425
28.700000000000003 1.1994080351993275 -0.6242600440962603
28.75 1.1994080351961816 -0.6242600440949392
28.8 1.1994080351934437 -0.6242600440935866
28.85 1.1994080351910914 -0.6242600440922096
28.900000000000002 1.1994080351891023 -0.6242600440908148
28.950000000000003 1.1994080351874548 -0.6242600440894083
29 1.1994080351861274 -0.6242600440879957
29.05 1.1994080351850998 -0.6242600440865824
29.1 1.199408035184352 -0.6242600440851731
29.150000000000002 1.1994080351838645 -0.6242600440837723
29.200000000000003 1.1994080351836187 -0.6242600440823841
29.25 1.1994080351835963 -0.6242600440810122
29.3 1.19940803518378 -0.6242600440796598
29.35 1.199408035184153 -0.6242600440783302
29.400000000000002 1.1994080351846992 -0.624260044077026
29.450000000000003 1.1994080351854033 -0.6242600440757495
29.5 1.1994080351862504 -0.6242600440745031
29.55 1.1994080351872267 -0.6242600440732884
29.6 1.1994080351883185 -0.6242600440721072
29.650000000000002 1.199408035189513 -0.6242600440709608
29.700000000000003 1.1994080351907985 -0.6242600440698504
29.75 1.1994080351921634 -0.6242600440687768
29.8 1.1994080351935967 -0.6242600440677408
29.85 1.1994080351950884 -0.6242600440667431
29.900000000000002 1.1994080351966288 -0.624260044065784
29.950000000000003 1.1994080351982086 -0.6242600440648636
30 1.1994080351998198 -0.6242600440639821
30.05 1.1994080352014542 -0.6242600440631394
30.1 1.1994080352031047 -0.6242600440623354
30.150000000000002 1.1994080352047642 -0.6242600440615697
30.200000000000003 1.1994080352064267 -0.6242600440608418
30.25 1.199408035208086 -0.6242600440601513
30.3 1.199408035209737 -0.6242600440594978
30.35 1.1994080352113745 -0.6242600440588802
30.400000000000002 1.1994080352129943 -0.6242600440582982
30.450000000000003 1.1994080352145922 -0.6242600440577506
30.5 1.1994080352161645 -0.6242600440572368
30.55 1.199408035217708 -0.6242600440567558
30.6 1.1994080352192193 -0.6242600440563068
30.650000000000002 1.1994080352206964 -0.6242600440558885
30.700000000000003 1.1994080352221368 -0.6242600440555002
30.75 1.1994080352235383 -0.6242600440551407
30.8 1.1994080352248995 -0.6242600440548091
30.85 1.1994080352262186 -0.6242600440545042
30.900000000000002 1.1994080352274947 -0.624260044054225
30.950000000000003 1.1994080352287269 -0.6242600440539704
31 1.1994080352299143 -0.6242600440537394
31.05 1.1994080352310565 -0.6242600440535309
31.1 1.1994080352321532 -0.6242600440533438
31.150000000000002 1.1994080352332042 -0.6242600440531771
31.200000000000003 1.1994080352342094 -0.6242600440530298
31.25 1.199408035235169 -0.6242600440529009
31.3 1.1994080352360836 -0.6242600440527893
31.35 1.1994080352369534 -0.6242600440526941
31.400000000000002 1.199408035237779 -0.6242600440526143
31.450000000000003 1.1994080352385612 -0.6242600440525489
31.5 1.1994080352393006 -0.624260044052497
31.55 1.199408035239998 -0.6242600440524578
31.6 1.1994080352406546 -0.6242600440524305
31.650000000000002 1.1994080352412713 -0.6242600440524142
31.700000000000003 1.1994080352418488 -0.624260044052408
31.75 1.1994080352423886 -0.6242600440524112
31.8 1.1994080352428917 -0.6242600440524231
31.85 1.1994080352433594 -0.6242600440524428
31.900000000000002 1.1994080352437926 -0.6242600440524698
31.950000000000003 1.1994080352441927 -0.6242600440525035
32 1.1994080352445609 -0.624260044052543
32.050000000000004 1.1994080352448986 -0.624260044052588
32.1 1.1994080352452068 -0.6242600440526377
32.15 1.199408035245487 -0.6242600440526916
32.2 1.1994080352457404 -0.6242600440527494
32.25 1.199408035245968 -0.6242600440528103
32.300000000000004 1.1994080352461713 -0.624260044052874
32.35 1.1994080352463514 -0.6242600440529401
32.4 1.1994080352465097 -0.6242600440530081
32.45 1.1994080352466472 -0.6242600440530776
32.5 1.199408035246765 -0.6242600440531483
32.550000000000004 1.1994080352468646 -0.6242600440532199
32.6 1.1994080352469467 -0.624260044053292
32.65 1.1994080352470124 -0.6242600440533645
32.7 1.199408035247063 -0.624260044053437
32.75 1.1994080352470995 -0.6242600440535092
32.800000000000004 1.1994080352471226 -0.6242600440535809
32.85 1.1994080352471335 -0.624260044053652
32.9 1.199408035247133 -0.6242600440537222
32.95 1.1994080352471221 -0.6242600440537913
33 1.1994080352471017 -0.6242600440538593
33.050000000000004 1.1994080352470726 -0.624260044053926
33.1 1.1994080352470355 -0.6242600440539913
33.15 1.1994080352469911 -0.624260044054055
33.2 1.1994080352469403 -0.6242600440541171
33.25 1.1994080352468834 -0.6242600440541773
33.300000000000004 1.1994080352468215 -0.6242600440542359
33.35 1.1994080352467549 -0.6242600440542925
33.4 1.1994080352466843 -0.6242600440543472
33.45 1.1994080352466103 -0.6242600440544
33.5 1.1994080352465335 -0.6242600440544509
33.550000000000004 1.1994080352464542 -0.6242600440544998
33.6 1.199408035246373 -0.6242600440545466
33.65 1.1994080352462901 -0.6242600440545916
33.7 1.1994080352462062 -0.6242600440546345
33.75 1.1994080352461216 -0.6242600440546755
33.800000000000004 1.1994080352460366 -0.6242600440547145
33.85 1.1994080352459513 -0.6242600440547516
33.9 1.1994080352458663 -0.6242600440547866
33.95 1.1994080352457817 -0.6242600440548199
34 1.1994080352456977 -0.6242600440548514
34.050000000000004 1.199408035245615 -0.624260044054881
34.1 1.1994080352455332 -0.6242600440549089
34.15 1.1994080352454528 -0.624260044054935
34.2 1.199408035245374 -0.6242600440549594
34.25 1.1994080352452967 -0.6242600440549821
34.300000000000004 1.1994080352452212 -0.6242600440550033
34.35 1.1994080352451477 -0.624260044055023
34.4 1.1994080352450762 -0.6242600440550412
34.45 1.1994080352450067 -0.624260044055058
34.5 1.1994080352449394 -0.6242600440550734
34.550000000000004 1.1994080352448744 -0.6242600440550875
34.6 1.1994080352448115 -0.6242600440551004
34.65 1.199408035244751 -0.624260044055112
34.7 1.1994080352446927 -0.6242600440551226
34.75 1.1994080352446368 -0.624260044055132
34.800000000000004 1.1994080352445833 -0.6242600440551405
34.85 1.199408035244532 -0.6242600440551479
34.9 1.1994080352444831 -0.6242600440551543
34.95 1.1994080352444365 -0.62426004405516
35 1.1994080352443923 -0.6242600440551648
35.050000000000004 1.1994080352443504 -0.6242600440551688
35.1 1.1994080352443106 -0.624260044055172
35.15 1.1994080352442729 -0.6242600440551745
35.2 1.1994080352442373 -0.6242600440551764
35.25 1.199408035244204 -0.6242600440551778
35.300000000000004 1.1994080352441727 -0.6242600440551785
35.35 1.1994080352441434 -0.6242600440551788
35.4 1.199408035244116 -0.6242600440551785
35.45 1.1994080352440906 -0.6242600440551779
35.5 1.1994080352440668 -0.6242600440551768
35.550000000000004 1.1994080352440448 -0.6242600440551753
35.6 1.1994080352440246 -0.6242600440551735
35.65 1.199408035244006 -0.6242600440551714
35.7 1.1994080352439889 -0.6242600440551691
35.75 1.1994080352439733 -0.6242600440551666
35.800000000000004 1.1994080352439591 -0.6242600440551638
35.85 1.1994080352439462 -0.6242600440551608
35.9 1.1994080352439347 -0.6242600440551577
35.95 1.1994080352439245 -0.6242600440551543
36 1.1994080352439154 -0.6242600440551509
36.050000000000004 1.1994080352439074 -0.6242600440551475
36.1 1.1994080352439005 -0.6242600440551439
36.15 1.1994080352438945 -0.6242600440551402
36.2 1.1994080352438896 -0.6242600440551366
36.25 1.1994080352438856 -0.6242600440551329
36.300000000000004 1.1994080352438823 -0.6242600440551292
36.35 1.1994080352438798 -0.6242600440551256
36.4 1.199408035243878 -0.6242600440551219
36.45 1.199408035243877 -0.6242600440551183
36.5 1.1994080352438765 -0.6242600440551146
36.550000000000004 1.1994080352438765 -0.624260044055111
36.6 1.1994080352438772 -0.6242600440551075
36.65 1.1994080352438783 -0.624260044055104
36.7 1.1994080352438798 -0.6242600440551006
36.75 1.1994080352438818 -0.6242600440550973
36.800000000000004 1.199408035243884 -0.624260044055094
36.85 1.1994080352438867 -0.6242600440550908
36.9 1.1994080352438896 -0.6242600440550877
36.95 1.1994080352438927 -0.6242600440550847
37 1.199408035243896 -0.6242600440550818
37.050000000000004 1.1994080352438996 -0.6242600440550791
37.1 1.1994080352439034 -0.6242600440550764
37.15 1.1994080352439074 -0.6242600440550738
37.2 1.1994080352439114 -0.6242600440550714
37.25 1.1994080352439156 -0.624260044055069
37.300000000000004 1.1994080352439198 -0.6242600440550666
37.35 1.199408035243924 -0.6242600440550644
37.4 1.1994080352439285 -0.6242600440550623
37.45 1.199408035243933 -0.6242600440550603
37.5 1.1994080352439374 -0.6242600440550584
37.550000000000004 1.1994080352439418 -0.6242600440550566
37.6 1.199408035243946 -0.624260044055055
37.65 1.1994080352439502 -0.6242600440550534
37.7 1.1994080352439545 -0.6242600440550519
37.75 1.1994080352439587 -0.6242600440550504
37.800000000000004 1.1994080352439629 -0.6242600440550491
37.85 1.1994080352439669 -0.6242600440550479
37.9 1.1994080352439709 -0.6242600440550468
37.95 1.1994080352439747 -0.6242600440550456
38 1.1994080352439784 -0.6242600440550446
38.050000000000004 1.199408035243982 -0.6242600440550438
38.1 1.1994080352439855 -0.6242600440550429
38.15 1.199408035243989 -0.6242600440550421
38.2 1.1994080352439924 -0.6242600440550414
38.25 1.1994080352439955 -0.6242600440550408
38.300000000000004 1.1994080352439986 -0.6242600440550402
38.35 1.1994080352440015 -0.6242600440550397
38.400000000000006 1.1994080352440044 -0.6242600440550392
38.45 1.199408035244007 -0.6242600440550388
38.5 1.1994080352440097 -0.6242600440550384
38.550000000000004 1.1994080352440122 -0.6242600440550381
38.6 1.1994080352440146 -0.6242600440550378
38.650000000000006 1.1994080352440168 -0.6242600440550375
38.7 1.199408035244019 -0.6242600440550373
38.75 1.199408035244021 -0.6242600440550372
38.800000000000004 1.199408035244023 -0.6242600440550371
38.85 1.1994080352440248 -0.624260044055037
38.900000000000006 1.1994080352440266 -0.6242600440550369
38.95 1.1994080352440282 -0.6242600440550369
39 1.1994080352440297 -0.6242600440550369
39.050000000000004 1.199408035244031 -0.6242600440550369
39.1 1.1994080352440324 -0.6242600440550369
39.150000000000006 1.1994080352440335 -0.624260044055037
39.2 1.1994080352440346 -0.6242600440550371
39.25 1.1994080352440357 -0.6242600440550372
39.300000000000004 1.1994080352440366 -0.6242600440550373
39.35 1.1994080352440375 -0.6242600440550374
39.400000000000006 1.1994080352440382 -0.6242600440550375
39.45 1.1994080352440388 -0.6242600440550377
39.5 1.1994080352440395 -0.6242600440550378
39.550000000000004 1.1994080352440402 -0.6242600440550379
39.6 1.1994080352440406 -0.6242600440550381
39.650000000000006 1.199408035244041 -0.6242600440550383
39.7 1.1994080352440415 -0.6242600440550385
39.75 1.199408035244042 -0.6242600440550388
39.800000000000004 1.1994080352440422 -0.624260044055039
39.85 1.1994080352440424 -0.6242600440550392
39.900000000000006 1.1994080352440426 -0.6242600440550394
39.95 1.1994080352440428 -0.6242600440550397
40 1.1994080352440428 -0.6242600440550399
40.050000000000004 1.1994080352440428 -0.6242600440550401
40.1 1.1994080352440428 -0.6242600440550403
40.150000000000006 1.1994080352440428 -0.6242600440550405
40.2 1.1994080352440428 -0.6242600440550408
40.25 1.1994080352440428 -0.624260044055041
40.300000000000004 1.1994080352440426 -0.6242600440550412
40.35 1.1994080352440424 -0.6242600440550413
40.400000000000006 1.1994080352440422 -0.6242600440550414
40.45 1.199408035244042 -0.6242600440550415
40.5 1.1994080352440417 -0.6242600440550417
40.550000000000004 1.1994080352440415 -0.6242600440550418
40.6 1.1994080352440413 -0.6242600440550419
40.650000000000006 1.199408035244041 -0.624260044055042
40.7 1.1994080352440408 -0.6242600440550421
40.75 1.1994080352440406 -0.6242600440550422
40.800000000000004 1.1994080352440404 -0.6242600440550423
40.85 1.1994080352440402 -0.6242600440550424
40.900000000000006 1.19940803524404 -0.6242600440550425
40.95 1.1994080352440397 -0.6242600440550427
41 1.1994080352440395 -0.6242600440550428
41.050000000000004 1.1994080352440393 -0.6242600440550429
41.1 1.199408035244039 -0.624260044055043
41.150000000000006 1.1994080352440388 -0.6242600440550431
41.2 1.1994080352440386 -0.6242600440550432
41.25 1.1994080352440384 -0.6242600440550433
41.300000000000004 1.1994080352440382 -0.6242600440550434
41.35 1.199408035244038 -0.6242600440550435
41.400000000000006 1.1994080352440377 -0.6242600440550435
41.45 1.1994080352440375 -0.6242600440550435
41.5 1.1994080352440373 -0.6242600440550435
41.550000000000004 1.199408035244037 -0.6242600440550435
41.6 1.199408035244037 -0.6242600440550435
41.650000000000006 1.199408035244037 -0.6242600440550435
41.7 1.199408035244037 -0.6242600440550435
41.75 1.199408035244037 -0.6242600440550435
41.800000000000004 1.199408035244037 -0.6242600440550435
41.85 1.199408035244037 -0.6242600440550435
41.900000000000006 1.199408035244037 -0.6242600440550435
41.95 1.199408035244037 -0.6242600440550435
42 1.199408035244037 -0.6242600440550435
42.050000000000004 1.199408035244037 -0.6242600440550435
42.1 1.199408035244037 -0.6242600440550435
42.150000000000006 1.199408035244037 -0.6242600440550435
42.2 1.199408035244037 -0.6242600440550435
42.25 1.199408035244037 -0.6242600440550435
42.300000000000004 1.199408035244037 -0.6242600440550435
42.35 1.199408035244037 -0.6242600440550435
42.400000000000006 1.199408035244037 -0.6242600440550435
42.45 1.199408035244037 -0.6242600440550435
42.5 1.199408035244037 -0.6242600440550435
42.550000000000004 1.199408035244037 -0.6242600440550435
42.6 1.199408035244037 -0.6242600440550435
42.650000000000006 1.199408035244037 -0.6242600440550435
42.7 1.199408035244037 -0.6242600440550435
42.75 1.199408035244037 -0.6242600440550435
42.800000000000004 1.199408035244037 -0.6242600440550435
42.85 1.199408035244037 -0.6242600440550435
42.900000000000006 1.199408035244037 -0.6242600440550435
42.95 1.199408035244037 -0.6242600440550435
43 1.199408035244037 -0.6242600440550435
43.050000000000004 1.199408035244037 -0.6242600440550435
43.1 1.199408035244037 -0.6242600440550435
43.150000000000006 1.199408035244037 -0.6242600440550435
43.2 1.199408035244037 -0.6242600440550435
43.25 1.199408035244037 -0.6242600440550435
43.300000000000004 1.199408035244037 -0.6242600440550435
43.35 1.199408035244037 -0.6242600440550435
43.400000000000006 1.199408035244037 -0.6242600440550435
43.45 1.199408035244037 -0.6242600440550435
43.5 1.199408035244037 -0.6242600440550435
43.550000000000004 1.199408035244037 -0.6242600440550435
43.6 1.199408035244037 -0.6242600440550435
43.650000000000006 1.199408035244037 -0.6242600440550435
43.7 1.199408035244037 -0.6242600440550435
43.75 1.199408035244037 -0.6242600440550435
43.800000000000004 1.199408035244037 -0.6242600440550435
43.85 1.199408035244037 -0.6242600440550435
43.900000000000006 1.199408035244037 -0.6242600440550435
43.95 1.199408035244037 -0.6242600440550435
44 1.199408035244037 -0.6242600440550435
44.050000000000004 1.199408035244037 -0.6242600440550435
44.1 1.199408035244037 -0.6242600440550435
44.150000000000006 1.199408035244037 -0.6242600440550435
44.2 1.199408035244037 -0.6242600440550435
44.25 1.199408035244037 -0.6242600440550435
44.300000000000004 1.199408035244037 -0.6242600440550435
44.35 1.199408035244037 -0.6242600440550435
44.400000000000006 1.199408035244037 -0.6242600440550435
44.45 1.199408035244037 -0.6242600440550435
44.5 1.199408035244037 -0.6242600440550435
44.550000000000004 1.199408035244037 -0.6242600440550435
44.6 1.199408035244037 -0.6242600440550435
44.650000000000006 1.199408035244037 -0.6242600440550435
44.7 1.199408035244037 -0.6242600440550435
44.75 1.199408035244037 -0.6242600440550435
44.800000000000004 1.199408035244037 -0.6242600440550435
44.85 1.199408035244037 -0.6242600440550435
44.900000000000006 1.199408035244037 -0.6242600440550435
44.95 1.199408035244037 -0.6242600440550435
45 1.199408035244037 -0.6242600440550435
45.050000000000004 1.199408035244037 -0.6242600440550435
45.1 1.199408035244037 -0.6242600440550435
45.150000000000006 1.199408035244037 -0.6242600440550435
45.2 1.199408035244037 -0.6242600440550435
45.25 1.199408035244037 -0.6242600440550435
45.300000000000004 1.199408035244037 -0.6242600440550435
45.35 1.199408035244037 -0.6242600440550435
45.400000000000006 1.199408035244037 -0.6242600440550435
45.45 1.199408035244037 -0.6242600440550435
45.5 1.199408035244037 -0.6242600440550435
45.550000000000004 1.199408035244037 -0.6242600440550435
45.6 1.199408035244037 -0.6242600440550435
45.650000000000006 1.199408035244037 -0.6242600440550435
45.7 1.199408035244037 -0.6242600440550435
45.75 1.199408035244037 -0.6242600440550435
45.800000000000004 1.199408035244037 -0.6242600440550435
45.85 1.199408035244037 -0.6242600440550435
45.900000000000006 1.199408035244037 -0.6242600440550435
45.95 1.199408035244037 -0.6242600440550435
46 1.199408035244037 -0.6242600440550435
46.050000000000004 1.199408035244037 -0.6242600440550435
46.1 1.199408035244037 -0.6242600440550435
46.150000000000006 1.199408035244037 -0.6242600440550435
46.2 1.199408035244037 -0.6242600440550435
46.25 1.199408035244037 -0.6242600440550435
46.300000000000004 1.199408035244037 -0.6242600440550435
46.35 1.199408035244037 -0.6242600440550435
46.400000000000006 1.199408035244037 -0.6242600440550435
46.45 1.199408035244037 -0.6242600440550435
46.5 1.199408035244037 -0.6242600440550435
46.550000000000004 1.199408035244037 -0.6242600440550435
46.6 1.199408035244037 -0.6242600440550435
46.650000000000006 1.199408035244037 -0.6242600440550435
46.7 1.199408035244037 -0.6242600440550435
46.75 1.199408035244037 -0.6242600440550435
46.800000000000004 1.199408035244037 -0.6242600440550435
46.85 1.199408035244037 -0.6242600440550435
46.900000000000006 1.199408035244037 -0.6242600440550435
46.95 1.199408035244037 -0.6242600440550435
47 1.199408035244037 -0.6242600440550435
47.050000000000004 1.199408035244037 -0.6242600440550435
47.1 1.199408035244037 -0.6242600440550435
47.150000000000006 1.199408035244037 -0.6242600440550435
47.2 1.199408035244037 -0.6242600440550435
47.25 1.199408035244037 -0.6242600440550435
47.300000000000004 1.199408035244037 -0.6242600440550435
47.35 1.199408035244037 -0.6242600440550435
47.400000000000006 1.199408035244037 -0.6242600440550435
47.45 1.199408035244037 -0.6242600440550435
47.5 1.199408035244037 -0.6242600440550435
47.550000000000004 1.199408035244037 -0.6242600440550435
47.6 1.199408035244037 -0.6242600440550435
47.650000000000006 1.199408035244037 -0.6242600440550435
47.7 1.199408035244037 -0.6242600440550435
47.75 1.199408035244037 -0.6242600440550435
47.800000000000004 1.199408035244037 -0.6242600440550435
47.85 1.199408035244037 -0.6242600440550435
47.900000000000006 1.199408035244037 -0.6242600440550435
47.95 1.199408035244037 -0.6242600440550435
48 1.199408035244037 -0.6242600440550435
48.050000000000004 1.199408035244037 -0.6242600440550435
48.1 1.199408035244037 -0.6242600440550435
48.150000000000006 1.199408035244037 -0.6242600440550435
48.2 1.199408035244037 -0.6242600440550435
48.25 1.199408035244037 -0.6242600440550435
48.300000000000004 1.199408035244037 -0.6242600440550435
48.35 1.199408035244037 -0.6242600440550435
48.400000000000006 1.199408035244037 -0.6242600440550435
48.45 1.199408035244037 -0.6242600440550435
48.5 1.199408035244037 -0.6242600440550435
48.550000000000004 1.199408035244037 -0.6242600440550435
48.6 1.199408035244037 -0.6242600440550435
48.650000000000006 1.199408035244037 -0.6242600440550435
48.7 1.199408035244037 -0.6242600440550435
48.75 1.199408035244037 -0.6242600440550435
48.800000000000004 1.199408035244037 -0.6242600440550435
48.85 1.199408035244037 -0.6242600440550435
48.900000000000006 1.199408035244037 -0.6242600440550435
48.95 1.199408035244037 -0.6242600440550435
49 1.199408035244037 -0.6242600440550435
49.050000000000004 1.199408035244037 -0.6242600440550435
49.1 1.199408035244037 -0.6242600440550435
49.150000000000006 1.199408035244037 -0.6242600440550435
49.2 1.199408035244037 -0.6242600440550435
49.25 1.199408035244037 -0.6242600440550435
49.300000000000004 1.199408035244037 -0.6242600440550435
49.35 1.199408035244037 -0.6242600440550435
49.400000000000006 1.199408035244037 -0.6242600440550435
49.45 1.199408035244037 -0.6242600440550435
49.5 1.199408035244037 -0.6242600440550435
49.550000000000004 1.199408035244037 -0.6242600440550435
49.6 1.199408035244037 -0.6242600440550435
49.650000000000006 1.199408035244037 -0.6242600440550435
49.7 1.199408035244037 -0.6242600440550435
49.75 1.199408035244037 -0.6242600440550435
49.800000000000004 1.199408035244037 -0.6242600440550435
49.85 1.199408035244037 -0.6242600440550435
49.900000000000006 1.199408035244037 -0.6242600440550435
49.95 1.199408035244037 -0.6242600440550435
